0.024777884
0.102076448
0.144406615
0.202441886
0.208638041
0.217349467
0.212993754
0.21311645
0.197534041
0.182871853
0.16520361
0.179190969
0.181951632
0.197534041
0.216858682
0.237287589
0.242747567
0.292562197
0.345198839
0.404092984
0.459490288
0.507709869
0.547279373
0.61433281
0.67402448
0.728501563
0.787395708
0.832670581
0.900766936
0.965427799
1.011622894
1.05174453
1.112295072
1.15456389
1.190207117
1.209777151
1.237874566
1.264499627
1.2986705
1.330878236
1.394373485
1.403146259
1.431611762
1.450445619
1.472101487
1.496456669
1.534983256
1.559338438
1.580748914
1.596392671
1.614858439
1.652158064
1.66277128
1.69608328
1.738106706
1.776571944
1.805834972
1.8636862
1.882949493
1.934236477
1.959021096
1.966014776
1.954481339
1.851723327
1.715960054
1.503266305
1.246463295
0.972482827
0.733654801
0.479183018
0.258636716
0.105082504
0.004717066
-0.061538847
-0.082029101
-0.070618361
-0.055035952
0.000668093
0.056617531
0.119376603
0.213852627
0.264710175
0.301519015
0.368143016
0.431699614
0.493170377
0.549058467
0.607707219
0.645988413
0.679055021
0.700465497
0.717642955
0.716600038
0.703655596
0.673472347
0.66353396
0.602492633
0.630467352
0.629117694
0.644393363
0.620160876
0.658196678
0.687950491
0.722366757
0.749605298
0.793162426
0.80543204
0.86635067
0.920214273
0.976225059
1.021622629
1.08346148
1.13014736
1.20186325
1.23615682
1.278977771
1.324866125
1.364681021
1.381735783
1.439709707
1.475782371
1.515658614
1.545044339
1.567497731
1.579644648
1.610318682
1.642096981
1.680439523
1.730008761
1.735284695
1.764547723
1.788166729
1.805528232
1.804178575
1.824300741
1.851600631
1.912089825
1.914543748
1.943009251
1.95288629
1.98018618
2.005216191
2.04398817
2.094170889
2.125703795
2.141592945
2.109323861
2.061533717
1.92368461
1.766326817
1.540443234
1.293149174
1.039536264
0.796413874
0.551880478
0.383295989
0.247655412
0.149805245
0.106922946
0.086555387
0.058642017
0.073610945
0.132689134
0.195632251
0.256366838
0.317530861
0.343174353
0.42231336
0.477710664
0.529304389
0.586419439
0.637399683
0.656356236
0.698747751
0.72353237
0.728624259
0.739912304
0.718072392
0.68163164
0.661448126
0.632982623
0.603780943
0.598811749
0.598198268
0.5908365
0.593413119
0.594517384
0.615682468
0.6448228
0.681386248
0.678318844
0.717765651
0.769788813
0.819480747
0.867454936
0.923895157
0.972850915
0.980887512
1.040701878
1.089412243
1.11554652
1.142478321
1.166833504
1.211310853
1.243886676
1.272904312
1.314191561
1.346644689
1.355356115
1.372778966
1.394986966
1.40566153
1.429219188
1.446212602
1.461856359
1.467009597
1.506517752
1.514738393
1.543571985
1.559522482
1.579153864
1.603938483
1.629950064
1.661973755
1.713076695
1.729272585
1.729824717
1.744118817
1.712831303
1.619398196
1.464862415
1.234745814
0.972482827
0.723777762
0.477772012
0.23471097
0.053918216
-0.10840877
-0.230982209
-0.296870033
-0.318893989
-0.340365813
-0.329568553
-0.307544597
-0.253865038
-0.195093589
-0.147916926
-0.097979599
-0.058716836
-0.019392725
0.021526436
0.076985089
0.125266018
0.166369223
0.201644362
0.233852097
0.262685689
0.264955567
0.257041666
0.257348407
0.230109865
0.201398969
0.188515875
0.153976913
0.126308935
0.107597774
0.10931552
0.106677553
0.124529841
0.141339211
0.140909775
0.169436626
0.226306285
0.262562992
0.299862617
0.348757027
0.38771305
0.435441846
0.477894708
0.526605074
0.555868102
0.594946821
0.621571882
0.655006579
0.693778557
0.722612149
0.763101873
0.801689808
0.823591068
0.864939665
0.893466516
0.906840395
0.920091577
0.940091047
0.957881987
0.975427534
1.005733479
1.029413833
1.028984397
1.040579181
1.08665158
1.118245835
1.154379846
1.180023338
1.240389837
1.258303472
1.286584931
1.328669705
1.360877441
1.383269485
1.412287121
1.44627395
1.481855829
1.512713907
1.544798946
1.576454549
1.630134108
1.662341843
1.707923457
1.730928982
1.773136453
1.803319702
1.828717802
1.851109846
1.832398686
1.760007966
1.615287876
1.399649419
1.133644199
0.853160836
0.558751461
0.286366042
0.044654657
-0.158652837
-0.322390829
-0.420670433
-0.510054567
-0.539072203
-0.545697794
-0.533857617
-0.515943981
-0.519747561
-0.463368688
-0.387542476
-0.340304465
-0.30901695
-0.266011955
-0.225338187
-0.185339247
-0.153438252
-0.11350066
-0.107979334
-0.072274759
-0.086691555
-0.092642317
-0.104175754
-0.136444837
-0.179449832
-0.201780529
-0.230368728
-0.270429016
-0.289324221
-0.318587249
-0.327298674
-0.323740486
-0.31410884
-0.301348442
-0.27631843
-0.230246032
-0.215093059
-0.191105965
-0.159695755
-0.11570919
-0.076201035
-0.043563863
0.010483784
0.056126746
0.096125686
0.126124891
0.176675698
0.203116715
0.235569843
0.270783633
0.308083258
0.332193049
0.376240961
0.412313625
0.443662487
0.466852056
0.488998709
0.512372322
0.528506864
0.550408124
0.569426025
0.588689318
0.608566092
0.636479462
0.686048701
0.718992613
0.756169542
0.797334095
0.819726139
0.858191377
0.893098428
0.92064371
0.942729014
0.975304838
0.984077611
1.024628684
1.067695027
1.11806179
1.159164995
1.193274521
1.236647604
1.263211318
1.300756335
1.348914568
1.389649684
1.416581486
1.448911917
1.441059365
1.400937729
1.306829793
1.130822188
0.923833809
0.683410734
0.438754642
0.190540361
-0.041539377
-0.23411096
-0.385702034
-0.506925815
-0.592629065
-0.645511099
-0.666062702
-0.683853641
-0.663731475
-0.667351011
-0.613303364
-0.578887098
-0.522446876
-0.474104599
-0.417296289
-0.343678608
-0.303863713
-0.259999845
-0.215093059
-0.183192064
-0.158162053
-0.152763423
-0.149511975
-0.142518296
-0.143990649
-0.157548572
-0.174419291
-0.194234716
-0.208774208
-0.227239977
-0.23220917
-0.243374518
-0.244233391
-0.23950959
-0.223191004
-0.199694694
-0.157732616
-0.121291864
-0.085096505
-0.055833477
-0.016018581
0.045636227
0.085267078
0.146247057
0.19281024
0.222380008
0.260538506
0.305506639
0.354523745
0.41212958
0.441576653
0.490348366
0.528752256
0.567217494
0.602001849
0.641694048
0.667153496
0.710035795
0.748194293
0.77304026
0.80034015
0.823652416
0.855308018
0.881135555
0.915490472
0.946593942
0.964814318
0.988065236
1.019414098
1.022481502
1.064627624
1.092479646
1.130638144
1.174317968
1.211985681
1.264438279
1.280143384
1.276339804
1.211801637
1.102540729
0.952728749
0.751936525
0.533598754
0.314340761
0.121094349
-0.083930892
-0.254355822
-0.396376598
-0.506312335
-0.570850501
-0.613057972
-0.620787828
-0.629499254
-0.613671452
-0.593058502
-0.573672512
-0.539194899
-0.504103804
-0.456190964
-0.409934521
-0.367236266
-0.324108575
-0.271962718
-0.239693634
-0.204725236
-0.169450097
-0.155769478
-0.150922981
-0.156014871
-0.161597545
-0.176075689
-0.161536197
-0.174787379
-0.183192064
-0.199940087
-0.196259203
-0.183130716
-0.200614915
-0.185645987
-0.170983799
-0.138530671
-0.08209045
-0.047060703
0.015207585
0.042691519
0.079684404
0.120542217
0.160541157
0.192074063
0.265998484
0.294954772
0.345014795
0.392191459
0.428754907
0.454214355
0.518139041
0.53783177
0.571757251
0.600958931
0.63782912
0.665313054
0.727274602
0.76414479
0.77432857
0.790340415
0.814695598
0.835860681
0.887883842
0.903343555
0.921686627
0.939293522
0.972973611
0.998433059
1.030211358
1.063400662
1.105301392
1.148183691
1.199470676
1.233457505
1.254745284
1.265297152
1.27995934
1.267812423
1.205544134
1.100454895
0.906226914
0.739237475
0.527402599
0.317530861
0.117474813
-0.066569388
-0.246135181
-0.363494034
-0.447786278
-0.526373153
-0.569684888
-0.576985308
-0.564838391
-0.552323385
-0.539317595
-0.504042456
-0.494349462
-0.460362632
-0.421345261
-0.385149902
-0.341654122
-0.309814475
-0.276993259
-0.241779469
-0.214724971
-0.201351092
-0.182823976
-0.176566473
-0.171167843
-0.168039092
-0.15221129
-0.18460307
-0.192823711
-0.211534871
-0.218528551
-0.221964043
-0.248282364
-0.224479314
-0.209755777
-0.190431136
-0.165278429
-0.138592019
-0.122334782
-0.083256063
-0.04049646
0.010483784
0.038581199
0.090481664
0.117474813
0.140725731
0.175387389
0.221521135
0.265139611
0.30961696
0.353787568
0.380351282
0.415074288
0.448202244
0.491882068
0.518323085
0.516973427
0.555684058
0.58003924
0.622430755
0.650037385
0.663349916
0.65433175
0.690281717
0.716415994
0.761077387
0.783285387
0.824511289
0.811689542
0.870215599
0.89555235
0.94254497
0.957391202
0.993586562
1.051253745
1.066161325
1.067695027
1.045548375
0.975304838
0.855369366
0.685496568
0.506850996
0.308328651
0.079745752
-0.124788704
-0.317973768
-0.47471808
-0.604101154
-0.718637995
-0.792010284
-0.845383102
-0.871026595
-0.910596098
-0.920595833
-0.903418374
-0.903725114
-0.895504473
-0.864216959
-0.844217489
-0.806058991
-0.779372582
-0.741643521
-0.705325465
-0.685632735
-0.691399454
-0.664467652
-0.644774922
-0.663302039
-0.656553751
-0.652198039
-0.687105089
-0.685571387
-0.685755431
-0.69532573
-0.691154061
-0.711398924
-0.727840206
-0.707472647
-0.701583233
-0.686675652
-0.657167232
-0.626002414
-0.62391658
-0.588457397
-0.543121175
-0.485760732
-0.437111715
-0.411406875
-0.383677548
-0.32680789
-0.306563028
-0.262821856
-0.21760833
-0.174971423
-0.167732351
-0.129757898
-0.074176549
-0.026693145
-0.011417476
0.030176514
0.019072513
0.070482194
0.105818681
0.138149112
0.176553002
0.208392649
0.208085909
0.246919235
0.294034551
0.308574043
0.343665137
0.380105889
0.39182337
0.427282553
0.459735681
0.507219085
0.540040301
0.58163429
0.610958666
0.628565562
0.635865982
0.592554246
0.516482643
0.395504254
0.2004174
0.009747607
-0.22079843
-0.448215715
-0.643793353
-0.843481312
-1.038261426
-1.152062091
-1.243777451
-1.313162115
-1.348437254
-1.366044149
-1.376289277
-1.350707132
-1.328683176
-1.28635301
-1.260525474
-1.226170556
-1.182981517
-1.144638975
-1.086481007
-1.052678222
-1.024458111
-0.958018154
-0.934951281
-0.91464507
-0.900596363
-0.891148761
-0.885750131
-0.895259081
-0.91022801
-0.934153756
-0.927650861
-0.922190883
-0.923479192
-0.914829115
-0.90863296
-0.873971302
-0.848143765
-0.823420494
-0.792378372
-0.764280957
-0.722748316
-0.683608249
-0.643179873
-0.592567717
-0.547783628
-0.492938456
-0.469135406
-0.413247317
-0.370487714
-0.315765238
-0.280490099
-0.234356352
-0.189940352
-0.138285279
-0.101844527
-0.071047797
-0.029576504
0.001220226
0.039746812
0.049869243
0.091463233
0.128394769
0.163056427
0.201153577
0.227901334
0.261397379
0.288513225
0.306488209
0.351026905
0.392682243
0.416239901
0.456545581
0.48991893
0.519611394
0.56102134
0.600529495
0.643963927
0.655681407
0.65114165
0.591756721
0.482495814
0.328205424
0.122321311
-0.124236572
-0.354475868
-0.576126435
-0.800660361
-0.999489447
-1.153166356
-1.292855905
-1.391380901
-1.435122073
-1.465305322
-1.467023068
-1.454446714
-1.430336924
-1.388988326
-1.344879066
-1.317395132
-1.27905259
-1.218072611
-1.167337759
-1.123719284
-1.079732719
-1.031206398
-0.995072387
-0.972925734
-0.968692718
-0.935073977
-0.91624012
-0.900535015
-0.904768032
-0.916730905
-0.936791723
-0.941760916
-0.954828054
-0.948386507
-0.906485777
-0.897590308
-0.883050816
-0.857100583
-0.830046086
-0.792562416
-0.74673541
-0.710294658
-0.657719365
-0.608886303
-0.555268092
-0.502754147
-0.469810235
-0.439320245
-0.397296819
-0.360917415
-0.286011425
-0.242024861
-0.201841877
-0.155953522
-0.126997235
-0.080863488
-0.043441167
0.001158878
0.020054082
0.067660183
0.091831321
0.128517465
0.157596449
0.187595654
0.206613555
0.239864207
0.301580363
0.323420275
0.35660958
0.381762287
0.417834951
0.452742001
0.474152476
0.506482908
0.542800964
0.561389428
0.597707484
0.623412324
0.667889673
0.69653922
0.750096083
0.797824879
0.854265101
0.887454406
0.885920704
0.918864616
0.947759556
0.964078142
0.934815113
0.852792748
0.703287508
0.510409184
0.263483213
-0.021785299
-0.292452972
-0.564899739
-0.789617709
-0.976177182
-1.108811703
-1.23144649
-1.31905153
-1.368804812
-1.376289277
-1.368988857
-1.342977276
-1.307211353
-1.267580501
-1.232121318
-1.191631594
-1.152920964
-1.104517339
-1.055929669
-1.009918619
-0.957220629
-0.896670087
-0.894400208
-0.877100053
-0.868818064
-0.868818064
-0.877222749
-0.88133307
-0.895872562
-0.891455501
-0.900780407
-0.90673117
-0.905258816
-0.896363346
-0.876854661
-0.878081622
-0.847100848
-0.792010284
-0.758084803
-0.753483698
-0.696000559
-0.642014259
-0.60643238
-0.550851031
-0.498582478
-0.434964532
-0.399075913
-0.359567758
-0.317851072
-0.276257082
-0.222822916
-0.168836617
-0.116874804
0.433110619
0.461821515
0.487587703
0.531942356
0.578996323
0.603842291
0.599670622
0.57273882
0.479305714
0.312745711
0.11980604
-0.109574384
-0.363432686
-0.600972402
-0.828696428
-1.029059216
-1.172797737
-1.301690027
-1.420766625
-1.461440394
-1.483648394
-1.475121013
-1.478740549
-1.451133919
-1.396534139
-1.358559685
-1.309603927
-1.271874866
-1.2295447
-1.180220854
-1.114271681
-1.055438885
-0.995133735
-0.968447325
-0.935442065
-0.910657446
-0.874216694
-0.893234595
-0.892559766
-0.908878352
-0.915810684
-0.928387037
-0.910350706
-0.937711944
-0.942803833
-0.945687192
-0.929982087
-0.911393623
-0.861701688
-0.842070307
-0.809126395
-0.76452635
-0.726613244
-0.690724625
-0.663424735
-0.599745441
-0.544716225
-0.492570368
-0.440301814
-0.404413195
-0.341470078
-0.305826851
-0.26521443
-0.232699955
-0.174603335
-0.143683909
-0.114666273
-0.077427996
-0.057489875
-0.015221056
0.018397685
0.038274458
0.062629641
0.072077244
0.10900878
0.129069598
0.153302085
0.15980498
0.143056957
0.087966393
-0.003626271
-0.181535667
-0.390977968
-0.622137486
-0.885320694
-1.129608698
-1.345492547
-1.532420108
-1.68247748
-1.783088311
-1.845233903
-1.870632003
-1.866644378
-1.848055914
-1.817443228
-1.761677835
-1.718120707
-1.65836769
-1.594197611
-1.527880351
-1.474507532
-1.414754515
-1.355430934
-1.300708458
-1.258316943
-1.205066821
-1.158380942
-1.124762201
-1.092370421
-1.094824344
-1.100775106
-1.106664521
-1.091388852
-1.105866996
-1.093658731
-1.119854355
-1.125498378
-1.110161361
-1.104946775
-1.071880167
-1.009059746
-0.962005778
-0.91433833
-0.88703844
-0.833604273
-0.781887853
-0.70231941
-0.634529795
-0.570421065
-0.51631207
-0.482509285
-0.422388179
-0.346991404
-0.317176243
-0.274662033
-0.249141237
-0.204295799
-0.16969549
-0.096936682
-0.063011201
-0.052459333
-0.033257388
0.012324226
0.041648602
0.095880294
0.11091057
0.139437421
0.177657267
0.204343677
0.23121413
0.263544561
0.302500584
0.280292584
0.227962682
0.107965863
-0.081783709
-0.28141032
-0.537477153
-0.809617179
-1.057033934
-1.264390402
-1.469108902
-1.634319247
-1.72977684
-1.787198631
-1.829160709
-1.83547956
-1.811185725
-1.74756778
-1.710268155
-1.646711557
-1.594627048
-1.530702362
-1.472789786
-1.392178426
-1.327947
-1.274144745
-1.217336434
-1.16604945
-1.12635725
-1.063352785
-1.054273271
-1.048751945
-1.025316984
-1.030224829
-1.03875221
-1.034396498
-1.047709028
-1.046666111
-1.029181912
-1.029365956
-1.016482862
-0.962312519
-0.943110574
-0.92133201
-0.886424959
-0.836487633
-0.796059256
-0.769311499
-0.715877332
-0.659559807
-0.595696469
-0.527600114
-0.469074058
-0.438645416
-0.371101194
-0.313679403
-0.250184154
-0.19540033
-0.140248417
-0.091783444
-0.065342427
-0.012828482
0.00710964
0.03980816
0.086678084
0.130725996
0.175755477
0.19851561
0.223975058
0.27090633
0.301028231
0.35532127
0.374155127
0.400902884
0.429184343
0.46611588
0.494949471
0.552862047
0.580345981
0.618320434
0.661877562
0.698563706
0.739114779
0.787579752
0.832302493
0.852240615
0.906901743
0.947084727
0.981807733
1.032419888
1.07714263
1.115301127
1.158244774
1.181986476
1.176649195
1.090393812
0.973403048
0.785984702
0.556972367
0.247839456
-0.045404305
-0.373677813
-0.613548756
-0.803666417
-0.963416784
-1.048199813
-1.121142665
-1.182306688
-1.145559196
-1.121081317
-1.083413603
-1.006912564
-0.939859126
-0.887161136
-0.820475787
-0.765569267
-0.690172492
-0.628394988
-0.567353662
-0.499686743
-0.455638831
-0.390241791
-0.360549327
-0.350058807
-0.332145172
-0.33950694
-0.337421105
-0.35441452
-0.359690454
-0.357420575
-0.358831581
-0.336194144
-0.338832111
-0.338648067
-0.315213105
-0.293495889
-0.259386364
-0.240245767
-0.17951118
-0.113255268
-0.063133897
-0.019699465
0.028090679
0.104162283
0.1560014
0.205754682
0.259740981
0.30931022
0.347468717
0.370351547
0.415196984
0.471637206
0.52862956
0.527525295
0.584149561
0.613351241
0.656356236
0.701201673
0.735801983
0.772304083
0.794880172
0.792978382
0.830400703
0.859172947
0.896963356
0.91334329
0.942054185
0.959231644
1.003954385
1.051315093
1.071437259
1.100454895
1.138736089
1.167078896
1.19204756
1.229531229
1.253456975
1.2986705
1.330080711
1.369711562
1.393698657
1.421489331
1.427378746
1.422409552
1.341062015
1.177630764
0.947514163
0.704575817
0.435380498
0.168148317
-0.075955643
-0.310550652
-0.487969263
-0.600604314
-0.690724625
-0.720233045
-0.739619034
-0.727901554
-0.676737266
-0.627904204
-0.571709374
-0.499932136
-0.455393439
-0.405026676
-0.360917415
-0.299630696
-0.233742872
-0.187731821
-0.143254473
-0.090249742
-0.056385609
-0.03129425
-0.018227111
-0.019270029
-0.028717631
-0.034975134
-0.057428526
-0.050312151
-0.05859414
-0.070679709
-0.072826891
-0.070372969
-0.051477764
-0.027183929
-0.002460658
0.026863718
0.073856337
0.10931552
0.168639101
0.237839721
0.276795744
0.32992317
0.393234376
0.452619305
0.51562377
0.563843351
0.608504744
0.634823065
0.689974977
0.76193626
0.789113454
0.819358051
0.868804593
0.895675047
0.92475403
0.956593677
0.981562341
0.995427004
1.030211358
1.070946475
1.086099447
1.100822983
1.122785592
1.144932244
1.179900642
1.203703692
1.228979096
1.256831119
1.28597145
1.316645484
1.341430103
1.36787112
1.385293971
1.356521728
1.285603362
1.167692377
0.973034959
0.738623994
0.459490288
0.192748892
-0.045527001
-0.252576728
-0.441835516
-0.575267562
-0.658210149
-0.682442636
-0.707779388
-0.692381023
-0.666001354
-0.626493198
-0.572568247
-0.516864202
-0.506680423
-0.439504289
-0.376683869
-0.311225481
-0.253496949
-0.212639137
-0.158468793
-0.112703135
-0.068961963
-0.040373764
-0.019576769
-0.025956968
-0.035834007
-0.030312681
-0.034913786
-0.031478294
-0.051048327
-0.06810309
-0.077857433
-0.079084394
-0.068287134
-0.056631002
-0.029883244
-0.006141542
0.038765243
0.079377664
0.122505355
0.171154372
0.225140671
0.275752827
0.339861557
0.429122995
0.476115615
0.514151416
0.562125605
0.602799373
0.648687728
0.689852281
0.734697718
0.777273277
0.810278537
0.849050515
0.891626074
0.912729809
0.954630539
0.983709523
1.010027844
1.037695822
1.069228729
1.087019668
1.107019138
1.152846145
1.170084951
1.18505388
1.222292157
1.249223958
1.272720268
1.297995672
1.317443009
1.340693926
1.377134678
1.425722348
1.454555939
1.531486416
1.554553289
1.575902416
1.60307961
1.636207567
1.633078815
1.578356339
1.454985376
1.25805808
1.042419623
0.746967332
0.453907614
0.179620405
-0.05859414
-0.252147292
-0.397051427
-0.476865262
-0.52232418
-0.542753087
-0.526802589
-0.493981373
-0.44741819
-0.383677548
-0.297483514
-0.24650327
-0.194357413
-0.115279754
-0.039760283
0.019256558
0.07029815
0.118824471
0.171277068
0.204466373
0.216551942
0.233177268
0.240784429
0.240293644
0.233484009
0.209251522
0.190294969
0.171277068
0.161522726
0.157167013
0.148148847
0.147964803
0.168639101
0.212134881
0.24231813
0.314954242
0.347591414
0.385627215
0.438631945
0.486176698
0.527463947
0.593535815
0.645743021
0.711201408
0.765985232
0.814327509
0.853712969
0.908496793
0.954323799
0.997390142
1.034260331
1.100270851
1.134134984
1.158796907
1.197446189
1.217997792
1.246708687
1.277873506
1.299529373
1.315970655
1.33615417
1.362963275
1.386582281
1.425661
1.439218923
1.459034348
1.487193111
1.515842659
1.546884781
1.563448759
1.595043013
1.619827633
1.647127522
1.679212562
1.698414507
1.740621977
1.786080895
1.814607746
1.826447923
1.811049558
1.712831303
1.551363189
1.330878236
1.084013613
0.791567376
0.51243367
0.267961622
0.049685199
-0.106322936
-0.223559093
-0.281901105
-0.30711516
-0.268527226
-0.252576728
-0.203805015
-0.146628616
-0.067489609
-0.008043332
0.091156492
0.136431366
0.19440529
0.258636716
0.310905269
0.383295989
0.452926045
0.486912874
0.512740411
0.527709339
0.520286223
0.517096123
0.523967107
0.48513378
0.454459747
0.422497404
0.396608519
0.391700674
0.352069823
0.361946861
0.37851084
0.378020055
0.419368652
0.433478708
0.441085868
0.491575327
0.545684323
0.595682998
0.655681407
0.71083332
0.74702868
0.791506028
0.847148725
0.913404638
0.949354605
1.001929899
1.047388817
1.07616106
1.114564951
1.155668156
1.193765305
1.23775187
1.251800577
1.274315318
1.296093882
1.327074656
1.334804512
1.356276336
1.372042789
1.412777906
1.421366635
1.434249729
1.448911917
1.453390326
1.475414282
1.497560934
1.529277885
1.563571455
1.585534063
1.602711522
1.607803411
1.570565135
1.458604912
1.303946434
1.067265591
0.811689542
0.528506864
0.257839191
0.031832911
-0.167977744
-0.315397149
-0.396192554
-0.435209925
-0.449933461
-0.438829461
-0.391591449
-0.336868973
-0.276134386
-0.206013545
-0.148959843
-0.083685499
-0.01000647
0.042875564
0.092015365
0.164037996
0.21311645
0.25820728
0.298083523
0.32391106
0.333665402
0.338205159
0.335689889
0.319309955
0.293298374
0.261581423
0.25630549
0.194773378
0.179559057
0.163363168
0.153179388
0.165755742
0.183730726
0.2036075
0.23280918
0.256489534
0.302071148
0.358450022
0.412927105
0.47212799
0.511758842
0.562125605
0.607768567
0.658258026
0.699238535
0.756721674
0.793101078
0.840216394
0.887393057
0.913588682
0.953096838
0.998003623
1.021315888
1.067572331
1.08695832
1.109411713
1.131926454
1.150208178
1.167569681
1.187753195
1.22376451
1.242966455
1.257015163
1.248058345
1.283026743
1.3161547
1.342043584
1.36535585
1.392226303
1.402839519
1.345785816
1.247199472
1.065302453
0.826719819
0.558874157
0.26201086
-0.003442227
-0.269324751
-0.473491119
-0.62833364
-0.739066902
-0.792807809
-0.817347036
-0.818880737
-0.794954991
-0.741520825
-0.679191188
-0.609745176
-0.546986103
-0.485085903
-0.43281735
-0.384229681
-0.340243117
-0.259570408
-0.207976684
-0.170431666
-0.139266848
-0.120432992
-0.100310825
-0.083624151
-0.102458008
-0.126813191
-0.155646782
-0.183682849
-0.198467733
-0.183130716
-0.220553037
-0.238589369
-0.238466673
-0.229448507
-0.237423756
-0.206320286
-0.216320021
-0.175032771
-0.121475909
-0.067428261
-0.007245807
0.046985884
0.104591719
0.160541157
0.206797599
0.254158307
0.308328651
0.331886308
0.399614575
0.436484763
0.472680123
0.505685383
0.541758047
0.573045561
0.591449981
0.624516589
0.650037385
0.685373872
0.706907044
0.698502358
0.72003553
0.740709829
0.764819619
0.7876411
0.771383862
0.790340415
0.82794678
0.858559466
0.89334382
0.928189522
0.950826959
0.954998628
0.998985192
1.034505723
1.078001502
1.098982541
1.074075226
1.023831159
0.872056041
0.666171927
0.404951857
0.101647012
-0.211289479
-0.513980843
-0.73023278
-0.93084096
-1.066174796
-1.149669516
-1.173717958
-1.172736389
-1.158994422
-1.107400698
-1.043598708
-0.981146375
-0.904154551
-0.827530815
-0.741091388
-0.681829155
-0.634223055
-0.573733861
-0.525084843
-0.504103804
-0.440976643
-0.398646477
-0.370794454
-0.356500354
-0.345089614
-0.349752067
-0.381837106
-0.399750742
-0.427602764
-0.46171229
-0.464595649
-0.507539296
-0.499380003
-0.489564312
-0.47502482
-0.46011724
-0.418155162
-0.402388709
-0.364291559
-0.283864243
-0.24650327
-0.189326871
-0.136628881
-0.105280019
-0.048839797
0.003551452
0.075574083
0.112137531
0.155817355
0.172381334
0.223729666
0.267102749
0.301641711
0.347959502
0.389737536
0.403479503
0.429184343
0.477649316
0.508568742
0.509673007
0.526052941
0.539549516
0.585315174
0.608504744
0.625068722
0.634148236
0.659178247
0.674147176
0.694576082
0.737519729
0.758255376
0.797027354
0.817885697
0.830278007
0.885429919
0.927453345
0.975120794
1.009230319
0.985059181
0.933526804
0.863712704
0.702367287
0.464152741
0.198331566
-0.097734207
-0.380916885
-0.627290723
-0.83053687
-0.975441005
-1.093904123
-1.147583682
-1.169362246
-1.146602113
-1.101204543
-1.064579747
-0.991330154
-0.919675612
-0.862192473
-0.7772254
-0.705448161
-0.646922105
-0.564102214
-0.498705174
-0.439074853
-0.386254167
-0.322820265
-0.301655182
-0.293250497
-0.289446917
-0.304599889
-0.308587514
-0.336439536
-0.365825261
-0.409995869
-0.432633306
-0.470116975
-0.474349992
-0.485760732
-0.462939251
-0.448829196
-0.426743891
-0.380180708
-0.347359492
-0.294845547
-0.253865038
-0.200062783
-0.149941412
-0.090679179
-0.033011996
0.01060648
0.069991409
0.119192559
0.163240471
0.20581603
0.254096959
0.302991369
0.334340231
0.368449756
0.410473183
0.458263327
0.497587438
0.519611394
0.56893524
0.585376522
0.59592839
0.616602689
0.643718534
0.672061341
0.691938115
0.720710359
0.742918359
0.76034121
0.790401763
0.818315134
0.837210338
0.86224035
0.88984698
0.912607113
0.895859091
0.822302758
0.672920214
0.461269382
0.202809975
-0.083133367
-0.365702564
-0.637045066
-0.833052141
-0.997955746
-1.119363571
-1.198870666
-1.219790357
-1.232673451
-1.189975196
-1.141264831
-1.07813767
-1.018446
-0.94133148
-0.87464613
-0.804709334
-0.734711189
-0.672749641
-0.610297309
-0.54361196
-0.486803649
-0.433982963
-0.38870809
-0.366132001
-0.358708885
-0.358954277
-0.35472126
-0.355948222
-0.395333681
-0.409627781
-0.426191759
-0.433860267
-0.442878433
-0.439995074
-0.440240466
-0.415394499
-0.392695714
-0.365825261
-0.327973503
-0.259877148
-0.228589634
-0.173744462
-0.115463798
-0.041968814
-0.000558868
0.048212845
0.097413995
0.152197819
0.200662793
0.250968208
0.290721755
0.33722359
0.365014265
0.408141956
0.435687238
0.47942841
0.500961582
0.544027925
0.554763837
0.594762777
0.621878622
0.658564767
0.670588988
0.690220369
0.71114006
0.715250381
0.740955221
0.771261166
0.788131885
0.828682957
0.855430714
0.891380682
0.923649765
0.954814583
0.989598938
1.031438319
1.045425679
1.014935689
0.935980727
0.787886492
0.558383373
0.287531656
-0.000865608
-0.290428486
-0.548151717
-0.774464737
-0.937895988
-1.059549205
-1.131571836
-1.160037339
-1.156295107
-1.099609493
-1.073168476
-0.993661381
-0.925565026
-0.845076362
-0.759373112
-0.688945531
-0.617168292
-0.576862612
-0.492693064
-0.450730986
-0.383432156
-0.342635691
-0.314845017
-0.29251432
-0.285950077
-0.285091204
-0.29821969
-0.329077768
-0.325887669
-0.336930321
-0.353616995
-0.349445327
-0.367236266
-0.35760462
-0.357481923
-0.33441505
-0.316071978
-0.266134651
-0.219142032
-0.183498805
-0.138407975
-0.046017786
-0.002522006
0.035820536
0.084592249
0.115082239
0.1560014
0.212625666
0.254833136
0.305261247
0.351947126
0.403418155
0.446055062
0.4813302
0.518077693
0.555009229
0.584885738
0.641080567
0.655313319
0.673840435
0.679668502
0.705373342
0.734390978
0.760279862
0.785677962
0.816597388
0.842056836
0.864387532
0.905183997
0.928005478
0.962483092
0.985918053
1.026591822
1.078308243
1.103829039
1.130024664
1.159164995
1.198243714
1.240451185
1.280756865
1.315909307
1.322780291
1.262781881
1.137693172
0.931011533
0.668809894
0.367590884
0.057169663
-0.220982474
-0.467969793
-0.663424735
-0.808696958
-0.907405998
-0.98893758
-0.989796453
-0.957588717
-0.91624012
-0.834769887
-0.765998703
-0.675448956
-0.613548756
-0.539256247
-0.484165682
-0.435578013
-0.369935581
-0.297483514
-0.234049612
-0.163560683
-0.128837677
-0.106077544
-0.079881919
-0.097427466
-0.106936417
-0.119328726
-0.14300908
-0.159634407
-0.174664683
-0.195768418
-0.212639137
-0.224172573
-0.219816861
-0.198345037
-0.177425346
-0.158775534
-0.116384019
-0.083808195
-0.040741852
0.012385574
0.07091163
0.125020626
0.18041793
0.234895014
0.28740896
0.344278618
0.386854177
0.420963702
0.467526885
0.53562324
0.548015549
0.587401009
0.612185628
0.636418114
0.666908104
0.687275662
0.721569232
0.733777497
0.743102403
0.762733785
0.777886757
0.795616349
0.816597388
0.835737985
0.843774582
0.86763898
0.905490737
0.918925964
0.943833279
0.963035224
0.998310363
1.049290607
1.063646055
1.078246895
1.084320353
1.07714263
1.017205568
0.901748505
0.683165342
0.423478973
0.125695454
-0.165585169
-0.437418455
-0.680663542
-0.841702218
-0.966790928
-1.036789072
-1.074702178
-1.077033404
-1.02734147
-0.988078707
-0.932988142
-0.875075567
-0.790967367
-0.722871012
-0.648455806
-0.588764137
-0.514532976
-0.462755207
-0.396499294
-0.342267603
-0.285152552
-0.25251538
-0.236380839
-0.227608065
-0.229325811
-0.245276308
-0.240307115
-0.290551182
-0.326562498
-0.353371603
-0.376745217
-0.391959537
-0.393002454
-0.379873968
-0.364168863
-0.34140873
-0.331654387
-0.313924796
-0.245889789
-0.201903225
-0.165891909
-0.106077544
-0.06589456
-0.028778979
0.043734436
0.085880559
0.13091004
0.177227831
0.232379743
0.285384473
0.278022705
0.356486883
0.384952387
0.41212958
0.433233316
0.46832441
0.478017405
0.496851261
0.521881273
0.539181428
0.560591903
0.585621915
0.598443661
0.619547396
0.645620324
0.677337275
0.698563706
0.730096613
0.76353131
0.758071332
0.713532635
0.612492368
0.438447901
0.209865003
-0.033073344
-0.339138851
-0.622873662
-0.849493423
-1.045561846
-1.205925694
-1.319971751
-1.37015447
-1.379479376
-1.364939884
-1.321382756
-1.280402247
-1.240157915
-1.169300898
-1.101327239
-1.033721669
-0.987526574
-0.935564761
-0.883848341
-0.819862306
-0.767041621
-0.718760692
-0.674099299
-0.635572712
-0.63722911
-0.605266767
-0.61661616
-0.610235961
-0.635879453
-0.656369707
-0.695755166
-0.716674857
-0.719496868
-0.717472382
-0.71943552
-0.703730415
-0.718208559
-0.691338106
-0.656124315
-0.602751496
-0.558028755
-0.506680423
-0.48551534
-0.436989019
-0.380916885
-0.33091821
-0.271226541
-0.223681789
-0.16650539
-0.117181544
-0.104175754
-0.054361123
-0.013994095
0.024716536
0.056372138
0.095880294
0.124529841
0.162442947
0.191644627
0.209435566
0.246305755
0.254096959
0.282255722
0.281028761
0.29280759
0.305629336
0.342438176
0.359554287
0.387774398
0.404890508
0.421209094
0.45752715
0.491636676
0.526666422
0.54862903
0.584456301
0.62003818
0.642614269
0.701324369
0.726906514
0.726231685
0.651202999
0.507157737
0.288697269
-0.016202625
-0.299508
-0.601647231
-0.879308584
-1.11715504
-1.307211353
-1.464691841
-1.540334008
-1.573216572
-1.56346223
-1.537450649
-1.49426161
-1.43205467
-1.364081011
-1.300892502
-1.238317473
-1.174576831
-1.123289847
-1.08065294
-1.022924409
-0.965379922
-0.912068452
-0.856671147
-0.809249091
-0.787838615
-0.773053731
-0.77563035
-0.769986328
-0.792562416
-0.813298063
-0.844278837
-0.85084308
-0.856793843
-0.862008429
-0.877713534
-0.840720649
-0.832009224
-0.788513444
-0.754649311
-0.71023331
-0.66483574
-0.606493728
-0.562200424
-0.506803119
-0.461282853
-0.399321305
-0.330059337
-0.282759978
-0.236135446
-0.183253412
-0.130494075
-0.102948792
-0.051784504
-0.012337697
0.020851607
0.062568293
0.0909111
0.139130681
0.173056162
0.196981908
0.220846307
0.234956362
0.261826816
0.274832606
0.30452507
0.322868143
0.347284673
0.372314685
0.387222265
0.412497669
0.431576918
0.488262532
0.5099184
0.538997383
0.561757516
0.576910489
0.611449451
0.654822534
0.693839905
0.724759331
0.771199818
0.812425719
0.843529189
0.890767201
0.899846715
0.881871731
0.795861741
0.620344921
0.385013735
0.104530371
-0.19540033
-0.483429506
-0.736367587
-0.937098463
-1.094394907
-1.221017318
-1.262243219
-1.280034159
-1.239605783
-1.212612633
-1.146908853
-1.075192962
-1.010041315
-0.906915214
-0.834401798
-0.766918924
-0.704466592
-0.640480558
-0.578948446
-0.517723075
-0.452203339
-0.399014565
-0.369506145
-0.340181768
-0.346561967
-0.360978763
-0.388585394
-0.403063537
-0.433430831
-0.461037461
-0.48741713
-0.497539561
-0.498582478
-0.50201797
-0.486926345
-0.468583273
-0.453184908
-0.43631419
-0.399444001
-0.350794984
-0.296685989
-0.244724176
-0.192026186
-0.181597015
-0.112887179
-0.043809256
0.015084889
0.068028271
0.107475078
0.139560118
0.189252052
0.237471633
0.272992164
0.309801004
0.340536386
0.37722253
0.419920785
0.444950796
0.47721988
0.502188543
0.502311239
0.525623505
0.544702754
0.556174842
0.56893524
0.575376787
0.589854931
0.615621119
0.635007109
0.657460501
0.688318579
0.719053961
0.765678492
0.800217454
0.835124504
0.869479422
0.900214804
0.918373831
0.896411223
0.812057631
0.647399418
0.418448431
0.135756537
-0.131230251
-0.400916355
-0.647044801
-0.857100583
-1.019550265
-1.114701118
-1.186294312
-1.213900942
-1.228685827
-1.172613693
-1.11463977
-1.033967061
-0.958263546
-0.863112694
-0.79912666
-0.735140626
-0.67943658
-0.611156182
-0.543489263
-0.494165417
-0.43662093
-0.416069328
-0.364843692
-0.332635956
-0.324353967
-0.340181768
-0.360426631
-0.397726256
-0.427602764
-0.446559317
-0.45251008
-0.460608025
-0.464963737
-0.462571163
-0.45060829
-0.426743891
-0.401223095
-0.356254962
-0.322574873
-0.267177568
-0.230736816
-0.18110623
-0.1249114
-0.083562803
-0.048164968
0.013121751
0.063672558
0.123548272
0.177289179
0.220907655
0.251029556
0.29151928
0.33151822
0.328512165
0.372621425
0.415749116
0.431699614
0.469428675
0.490041626
0.51593051
0.54163535
0.552248566
0.56893524
0.569241981
0.589732235
0.61752291
0.621203794
0.642921009
0.663411264
0.701508414
0.738562646
0.757580547
0.778316194
0.808806183
0.842608968
0.887454406
0.912423069
0.898006273
0.826965211
0.701017629
0.481636941
0.219987434
-0.066262648
-0.347482188
-0.603610369
-0.811273577
-1.010286707
-1.136970466
-1.235986247
-1.294266911
-1.327088127
-1.301505983
-1.261813783
-1.203410423
-1.138074731
-1.066174796
-0.979980762
-0.930043435
-0.858020804
-0.800660361
-0.745999233
-0.674835475
-0.630603519
-0.580788888
-0.562568512
-0.535514015
-0.506803119
-0.510361307
-0.513796799
-0.535820755
-0.53692502
-0.582445286
-0.603487673
-0.645143011
-0.662995298
-0.666553486
-0.637597199
-0.617475033
-0.595267032
-0.577721485
-0.54931733
-0.50931839
-0.457479273
-0.418829991
-0.364659647
-0.327973503
-0.267054872
-0.21601328
-0.161658893
-0.117856373
-0.059514361
-0.006386935
0.038887939
0.069561973
0.099193089
0.134345532
0.17440582
0.214220715
0.239373423
0.257471103
0.295568253
0.313788629
0.333297314
0.340229646
0.351026905
0.363725955
0.39151663
0.392252807
0.419920785
0.439000034
0.453600874
0.465809139
0.459060852
0.501452366
0.540347041
0.570407594
0.598873097
0.63433228
0.663779352
0.658258026
0.615498423
0.518752521
0.313481888
0.067966923
-0.187609125
-0.499748091
-0.78133572
-1.03464189
-1.242734534
-1.388926978
-1.473219223
-1.522481721
-1.546775555
-1.546652859
-1.493832173
-1.437391952
-1.348314558
-1.258500987
-1.178809848
-1.113903593
-1.043107923
-0.969735635
-0.905565556
-0.85562823
-0.814218284
-0.763912869
-0.726306504
-0.704589288
-0.676675917
-0.692626415
-0.710969487
-0.756428405
-0.779065842
-0.803789113
-0.797899698
-0.831334395
-0.853542395
-0.860781467
-0.856119014
-0.856916539
-0.86673223
-0.825199588
-0.806120339
-0.766550836
-0.715877332
-0.658087453
-0.590175143
-0.534471098
-0.499073263
-0.457786013
-0.407603294
-0.381469018
-0.297299469
-0.246196529
-0.21920338
-0.185830031
-0.167855048
-0.146321876
-0.098531732
-0.066323996
-0.063256593
-0.043134427
-0.02209204
-0.004117056
0.003244712
0.029624381
0.027293154
0.029869773
0.037047497
0.077291829
0.113364493
0.128272073
0.133854747
0.151829731
0.1671054
0.187902395
0.204773113
0.191092494
0.1417073
0.010974569
-0.183069368
-0.435700709
-0.749618769
-1.012556586
-1.245127109
-1.500396417
-1.652294231
-1.769284995
-1.880079605
-1.908545108
-1.899649638
-1.857012732
-1.810020112
-1.746402166
-1.694992486
-1.606712617
-1.538984351
-1.463955665
-1.399908282
-1.336965165
-1.291567596
-1.207459395
-1.158626334
-1.11875009
-1.080100808
-1.05875168
-1.05145126
-1.05684989
-1.069364896
-1.09114346
-1.119179527
-1.151264566
-1.144638975
-1.166233494
-1.166294842
-1.179361981
-1.1676445
-1.142921229
-1.108995747
-1.081818554
-1.04764768
-1.008998398
-0.989121624
-0.93084096
-0.903786462
-0.858879677
-0.79372803
-0.744710924
-0.702380758
-0.641768867
-0.622198834
-0.574776778
-0.523980578
-0.481282323
-0.447847627
-0.426989284
-0.404106455
-0.371039846
-0.350242852
-0.326255757
-0.29601116
-0.278281569
-0.282391889
-0.240613855
-0.208835556
-0.180615446
-0.163069898
-0.1423956
-0.135524616
-0.095893765
-0.074115201
-0.047244747
-0.048533057
-0.113930096
-0.238466673
-0.439565637
-0.697656956
-0.978999193
-1.24126218
-1.49837193
-1.758794476
-1.911735208
-2.029032712
-2.110134857
-2.155839167
-2.163507676
-2.18369119
-2.119705156
-2.047866569
-1.959402656
-1.89609145
-1.824620952
-1.80087925
-1.726954829
-1.664870585
-1.612417987
-1.55677529
-1.508678406
-1.481439864
-1.43806678
-1.397822448
-1.413588901
-1.393344039
-1.405797697
-1.429232659
-1.413282161
-1.427392217
-1.43236141
-1.453158405
-1.457268725
-1.469231598
-1.44187036
-1.41616552
-1.387270581
-1.375062315
-1.336903817
-1.257274026
-1.212980721
-1.176110533
-1.140835394
-1.091756941
-1.035194023
-1.007832785
-0.93403106
-0.888265401
-0.849370727
-0.810844141
-0.770599808
-0.733913664
-0.693792028
-0.658210149
-0.622076138
-0.593303894
-0.54802902
-0.522753617
-0.512079053
-0.499870788
-0.485638036
-0.451160422
-0.433369483
-0.433737571
-0.417603029
-0.400180178
-0.376745217
-0.350856332
-0.31601063
-0.291655447
-0.260858718
-0.225583579
-0.189572263
-0.154603865
-0.128653633
-0.135647312
-0.194848197
-0.308832906
-0.518091164
-0.764096913
-1.039427039
-1.341504922
-1.592418517
-1.832044068
-2.005106966
-2.127925797
-2.206083234
-2.238843102
-2.211543212
-2.19320014
-2.146146173
-2.086209111
-1.994555098
-1.919342368
-1.849528267
-1.768855559
-1.697875845
-1.625791866
-1.567204462
-1.509475931
-1.440643399
-1.393466735
-1.368375376
-1.339419088
-1.319174226
-1.329358005
-1.328989917
-1.343652105
-1.369725033
-1.389479111
-1.409969365
-1.426349299
-1.416901697
-1.415674736
-1.389417763
-1.370583906
-1.335431464
-1.295371176
-1.258010203
-1.206477826
-1.151509958
-1.097216919
-1.035623459
-0.981882552
-0.929429955
-0.867836495
-0.827469467
-0.770845201
-0.723177752
-0.665694613
-0.606984513
-0.575635651
-0.546986103
-0.494349462
-0.465086433
-0.42741872
-0.388155957
-0.373002984
-0.347052752
-0.322268133
-0.318832641
-0.308955602
-0.279447182
-0.270183624
-0.229141767
-0.211534871
-0.18429633
-0.157057788
-0.128162848
-0.0884093
-0.06239772
-0.025404835
0.027231806
0.042875564
0.021649132
-0.058164703
-0.211412175
-0.420793129
-0.676307829
-0.941208783
-1.205005473
-1.455980416
-1.657570165
-1.823578035
-1.923207296
-1.979034037
-2.005904491
-2.012898171
-1.989340513
-1.938053528
-1.8722884
-1.799897681
-1.722599116
-1.648797391
-1.581682606
-1.523892726
-1.452544924
-1.39555257
-1.311260325
-1.25745807
-1.207336699
-1.174638179
-1.156785892
-1.152614223
-1.14825851
-1.157767461
-1.180834334
-1.18445387
-1.201324589
-1.213900942
-1.245617893
-1.224575506
-1.202612898
-1.169055505
-1.153595792
-1.113903593
-1.059181117
-1.002863591
-0.949061336
-0.899246705
-0.8216414
-0.769127455
-0.709374437
-0.66072542
-0.604346546
-0.544532181
-0.491650147
-0.453859737
-0.417173593
-0.375947692
-0.329936641
-0.294661503
-0.26331264
-0.234479049
-0.200614915
-0.183437457
-0.152640727
-0.133561478
-0.107611245
-0.075710251
-0.055281344
-0.034607045
-0.007736592
0.026311585
0.047169928
0.066494569
0.081156757
0.093487719
0.068150967
-0.006509631
-0.14779423
-0.348647802
-0.602444756
-0.873173777
-1.122921759
-1.370706602
-1.572419048
-1.720451934
-1.859650698
-1.926520092
-1.956948733
-1.933759164
-1.902532998
-1.857626212
-1.79167704
-1.736954564
-1.664747889
-1.609718672
-1.532849544
-1.473648659
-1.421073366
-1.35365184
-1.293223993
-1.236538379
-1.194514953
-1.140896742
-1.10985462
-1.094824344
-1.083597648
-1.064334354
-1.058874376
-1.063414133
-1.070039725
-1.078260366
-1.072432299
-1.058813028
-1.041512873
-1.020470486
-0.990655326
-0.944153491
-0.885934175
-0.839677732
-0.788820184
-0.727656161
-0.67311773
-0.607168557
-0.541342081
-0.484595119
-0.422081438
-0.361960332
-0.279017745
-0.226626496
-0.18460307
-0.149021191
-0.107304505
-0.074237897
-0.032521211
0.003980889
0.033121221
0.0687031
0.101953752
0.117045377
0.143547742
0.174099079
0.209742306
0.231275478
0.283850772
0.314095369
0.346793889
0.371701204
0.400596144
0.434521625
0.45783389
0.499182488
0.506053471
0.462189603
0.33372675
0.152259167
-0.079636527
-0.346561967
-0.604898679
-0.865934705
-1.079119239
-1.261200302
-1.393282691
-1.479415378
-1.516899047
-1.545119158
-1.545119158
-1.506531223
-1.457514118
-1.40346647
-1.315186602
-1.266721628
-1.225741119
-1.173963351
-1.118872786
-1.059855946
-1.032249315
-0.96703632
-0.917589778
-0.873725909
-0.841702218
-0.807592693
-0.805629555
-0.818389953
-0.801273842
-0.807163257
-0.808696958
-0.801151146
-0.790967367
-0.760845466
-0.752624825
-0.724956846
-0.659743851
-0.631462392
-0.596555342
-0.540360512
-0.481895804
-0.412633836
-0.358892929
-0.291226011
-0.229632551
-0.14840771
-0.0884093
-0.027306625
0.032446392
0.095634901
0.156798924
0.214956892
0.270844981
0.315567723
0.355873403
0.383541381
0.437159592
0.489182753
0.513906024
0.540531085
0.574763307
0.626909164
0.660098468
0.702612679
0.727704038
0.755740105
0.780463376
0.817456261
0.844817499
0.891564726
0.93555129
0.983464131
1.023524419
1.058676861
1.098123669
1.147018078
1.175176841
1.179164465
1.124441989
1.006715048
0.829603178
0.581143506
0.327653292
0.057476404
-0.192026186
-0.425455582
-0.578150921
-0.735386018
-0.832868097
-0.884461821
-0.909553181
-0.90163928
-0.882682727
-0.832315964
-0.76992498
-0.717840471
-0.671399984
-0.627904204
-0.572506899
-0.512017705
-0.471098544
-0.414658322
-0.354966653
-0.314047492
-0.272637546
-0.255766828
-0.249816065
-0.25000011
-0.258650187
-0.258220751
-0.245399005
-0.273864508
-0.263067248
-0.261472198
-0.269079359
-0.254539867
-0.240184419
-0.207117811
-0.186443512
-0.143745257
-0.095464328
-0.057673919
-0.050066758
0.025943497
0.094898725
0.141155167
0.188393179
0.263176473
0.346487148
0.39151663
0.438509249
0.491636676
0.548076897
0.58322934
0.646356501
0.660957341
0.690281717
0.718869917
0.749850691
0.774696658
0.818253786
0.843713234
0.864755621
0.897699533
0.926471776
0.96064265
0.995058916
1.023279026
1.074013878
1.111068111
1.139717658
1.171373261
1.1812503
1.234316378
1.271247914
1.278425638
1.238181306
1.158674211
0.975918319
0.786352791
0.565806489
0.316856032
0.098886349
-0.08779582
-0.263803425
-0.351899249
-0.443246521
-0.495085638
-0.515943981
-0.511956357
-0.480791539
-0.451037726
-0.404535891
-0.360978763
-0.328832376
-0.275214165
-0.243374518
-0.178468263
-0.112641787
-0.063195245
0.008950082
0.050114635
0.071954547
0.108149907
0.142872913
0.161522726
0.170479543
0.181951632
0.149682549
0.179436361
0.18900666
0.21280971
0.214098019
0.242992959
0.250293379
0.284464252
0.317960297
0.359370243
0.415074288
0.477035836
0.540101649
0.599057141
0.665619794
0.723655066
0.791321984
0.850093433
0.895920439
0.965059711
1.013095247
1.084320353
1.143521238
1.206893792
1.241371406
1.29676871
1.347319518
1.409035673
1.481549089
1.507560669
1.546025908
1.579705997
1.632894771
1.683200186
1.740499281
1.798473204
1.815527967
1.874728852
1.930126157
1.971781494
2.017056368
2.004234622
1.963376809
1.85638578
1.704181225
1.534185731
1.342841109
1.157140509
0.995427004
0.842118184
0.718931265
0.633350711
0.574395218
0.558690113
0.577094533
0.564947616
0.575806224
0.620467617
0.665374402
0.725802248
0.742550271
0.79463478
0.847394118
0.902116594
0.951685832
1.017205568
1.045916463
1.116896177
1.172232134
1.202538079
1.215421173
1.244745549
1.217568355
1.252045969
1.265603892
1.270204997
1.289775031
1.320755805
1.329344534
1.359343739
1.391306082
1.426581221
1.479647299
1.526946659
1.556700471
1.617741798
1.673507191
1.733321557
1.793442663
1.873317846
1.924052698
1.988345473
2.046380744
2.099385474
2.158340967
2.216928371
2.252080814
2.318643467
2.366433611
2.425143712
2.469805104
2.521214785
2.591396974
2.62802177
2.6667324
2.712743451
2.744215009
2.778017794
2.815869552
2.862494083
2.902799763
2.958013024
3.010342925
3.039299213
3.095003258
3.140830264
3.188927149
3.241625139
3.256900807
3.24825073
3.211135149
3.115677557
2.98163203
2.830102304
2.651456732
2.471706895
2.29821456
2.163555553
2.038834932
1.906016366
1.860925537
1.854606686
1.848655923
1.855710951
1.888164079
1.939328367
1.991412876
2.035215396
2.063803595
2.103373099
2.125949187
2.166991044
2.20809425
2.259749322
2.302263533
2.337354627
2.357415445
2.382384109
2.391831711
2.403671888
2.418763513
2.406003115
2.413364883
2.422383048
2.419929126
2.426984154
2.444897789
2.448701369
2.477719005
2.507902254
2.53121452
2.566182918
2.603237151
2.650781903
2.679492798
2.72642407
2.765073352
2.81402911
2.846788978
2.891818459
2.946111499
3.000220494
3.045188627
3.076108053
3.104021424
3.157026154
3.206104608
3.254508233
3.285489007
3.326469516
3.352419748
3.391621163
3.416528479
3.450883396
3.499471065
3.51486943
3.540328878
3.566279111
3.604130868
3.628915487
3.670386781
3.701551599
3.742900196
3.761918097
3.740139533
3.671797786
3.587628238
3.453644059
3.317328654
3.144265756
2.979914284
2.811207099
2.676854832
2.554097349
2.459437281
2.389684529
2.347906495
2.34870402
2.351035246
2.355145567
2.365697434
2.383856462
2.405635026
2.43091043
2.463670298
2.491460972
2.543300089
2.544465702
2.571704244
2.589433836
2.613604974
2.631150521
2.639861947
2.623359317
2.632622875
2.643972267
2.649248201
2.651395384
2.651456732
2.652438301
2.601580753
2.641641041
2.669738456
2.676302699
2.687713439
2.71053492
2.716915119
2.749368247
2.78863101
2.805624425
2.841574392
2.865009354
2.892309244
2.938320294
2.975619919
2.997766571
3.039299213
3.06604697
3.055311058
3.097395833
3.150339215
3.172853955
3.205368431
3.234692807
3.25144083
3.287329449
3.321929759
3.347389207
3.37205113
3.395792832
3.422847329
3.449042954
3.48566775
3.503274646
3.505544524
3.526157475
3.502538469
3.440699617
3.325181206
3.203896077
3.039483257
2.87942615
2.704277418
2.528269813
2.373304595
2.225762493
2.108280944
2.011657738
1.959021096
1.915586665
1.894421582
1.865342598
1.836447658
1.827429492
1.814669094
1.810926862
1.806448453
1.823625912
1.843809426
1.876630642
1.890004521
1.908224897
1.939389715
1.957855483
1.956321781
1.943500035
1.943500035
1.961597715
1.959327837
1.956935262
1.945647218
1.935954223
1.931414466
1.923071129
1.927304146
1.925770444
1.934236477
1.930432897
1.946138002
1.969941052
1.994480279
2.016749628
2.057484744
2.084661938
2.0969929
2.121348082
2.143985519
2.183432327
2.197787774
2.238093454
2.266190869
2.294288284
2.323244572
2.349133456
2.376678738
2.385144772
2.405021545
2.430358297
2.457964928
2.47281116
2.481829326
2.482688199
2.510846961
2.534404619
2.564097084
2.594955162
2.599678963
2.631334566
2.638328245
2.662069947
2.682989638
2.707651561
2.722252401
2.751454081
2.774766347
2.757282148
2.697099694
2.612378013
2.485448862
2.333121611
2.14999763
1.941536897
1.74178759
1.543756029
1.373883231
1.202906167
1.095240309
0.999537324
0.927269301
0.879601853
0.837823819
0.845308283
0.819174007
0.801444415
0.801873852
0.815799863
0.803223509
0.806965741
0.82224141
0.852056571
0.855614759
0.871503908
0.895000218
0.911932284
0.899908063
0.894448085
0.915797213
0.891257986
0.860154516
0.857087112
0.861320129
0.849111863
0.841259311
0.840584482
0.854019709
0.862976527
0.864816969
0.878313544
0.888129234
0.910398583
0.922116064
0.952176617
0.943894627
0.977206628
1.013463336
1.051928574
1.088737414
1.118797967
1.147999647
1.175544929
1.217384311
1.246401947
1.260757395
1.295480401
1.318179186
1.34406807
1.367380336
1.39167417
1.424679431
1.416397441
1.448543829
1.483021443
1.50087373
1.521793421
1.548602526
1.573939278
1.599460074
1.629581975
1.652894241
1.683629622
1.697616982
1.729211236
1.745836563
1.778412386
0.066433221
0.036863453
0.039685464
0.040360293
0.051464293
0.027845287
0.05790584
0.095757597
0.122934791
0.155449267
0.184098814
0.253299434
0.254894484
0.273605644
0.280169888
0.288574573
0.30262328
0.309678308
0.287470308
0.264096694
0.254833136
0.247164628
0.244588009
0.272746772
0.267470838
0.269188584
0.284955037
0.28992423
0.300844186
0.341395259
0.361087988
0.395258862
0.435503194
0.454827835
0.481268852
0.527770687
0.553782268
0.58003924
0.610651926
0.641755396
0.664638225
0.709115574
0.748439685
0.774512614
0.797947575
0.817088172
0.828805653
0.882362516
0.895368306
0.926226384
0.935919379
0.970274296
0.988126584
0.990764551
1.059965171
1.091252685
1.103644995
1.135055205
1.140147095
1.141435404
1.102356685
1.016714783
0.919539445
0.768684547
0.601572412
0.429245691
0.237164893
0.076064868
-0.065526471
-0.188897435
-0.265643867
-0.327850807
-0.397051427
-0.433921615
-0.455577483
-0.461773638
-0.454841306
-0.455700179
-0.448399759
-0.433492179
-0.39060988
-0.362880553
-0.331470343
-0.325764973
-0.285520641
-0.253680994
-0.214356883
-0.186443512
-0.16969549
-0.131966428
-0.129573854
-0.11859255
-0.121843997
-0.130984859
-0.131414296
-0.156260263
-0.178222871
-0.144420086
-0.112089654
-0.086139422
-0.052152593
-0.040987244
-0.01160152
0.024409795
0.060727851
0.101524316
0.143118305
0.162565643
0.214282063
0.256428186
0.307592474
0.342928961
0.404399724
0.408203304
0.459367592
0.490777803
0.524335195
0.567156146
0.606050821
0.616602689
0.674208524
0.69623248
0.751384392
0.781199553
0.822977587
0.835063156
0.868129764
0.90285277
0.947759556
0.973280352
1.006285612
1.008984927
1.056529679
1.097080751
1.124564686
1.166833504
1.197814278
1.197078101
1.156772421
1.095976486
0.98665423
0.841811443
0.662613739
0.516482643
0.333788098
0.17661435
0.039624116
-0.078470914
-0.174419291
-0.222332131
-0.280796839
-0.304599889
-0.309937171
-0.288588044
-0.266134651
-0.231288949
-0.222025391
-0.200001435
-0.188590694
-0.152640727
-0.091169963
-0.087366383
-0.082581234
-0.01890194
0.027783939
0.053918216
0.089132006
0.07759857
0.093180979
0.112689664
0.129867123
0.15661488
0.165755742
0.157535101
0.167289444
0.175387389
0.203239411
0.213668583
0.232257047
0.235753887
0.273789689
0.304770463
0.356118795
0.401823105
0.451024255
0.49783283
0.532310444
0.573597693
0.61273776
0.644393363
0.681877032
0.732673232
0.762795133
0.814082117
0.865982582
0.889172151
0.914999688
0.941502053
0.997512838
1.038063911
1.065179756
1.101743204
1.136527559
1.153152885
1.215421173
1.251432489
1.286891671
1.330264755
1.37326975
1.39296248
1.42375921
1.470629133
1.499401377
1.537253134
1.57927656
1.611422947
1.650010882
1.679151214
1.719824982
1.75448664
1.766449513
1.745468474
1.699089335
1.615717312
1.484003012
1.331614413
1.161987007
0.982605258
0.818008393
0.667828325
0.546911284
0.429000299
0.349799944
0.294648032
0.27090633
0.253238086
0.263421865
0.281335501
0.313052452
0.321579833
0.357100364
0.391639326
0.432435791
0.467772277
0.525194068
0.564150091
0.599670622
0.641203264
0.66193891
0.675496833
0.689361496
0.699667972
0.710281187
0.71684543
0.72414585
0.72414585
0.732918624
0.719790138
0.715127685
0.725004723
0.717888348
0.752795398
0.768193763
0.793101078
0.827762736
0.852792748
0.895368306
0.925060771
0.957943335
0.985856705
1.030211358
1.076835889
1.13235589
1.161066786
1.202292687
1.235481991
1.260941439
1.306154965
1.332534634
1.369098082
1.40437322
1.440077795
1.465169155
1.504615962
1.532345289
1.560749444
1.600564339
1.629827368
1.649213357
1.68847612
1.71258591
1.743873425
1.765651988
1.788473469
1.797737028
1.822214906
1.867980565
1.883808366
1.912273869
1.888654863
1.849637493
1.754547988
1.625717047
1.454065155
1.274928798
1.104994652
0.915429124
0.741077917
0.609854401
0.497648786
0.402743326
0.337898419
0.292868938
0.264464782
0.268697799
0.288819965
0.304463722
0.337775723
0.363357867
0.402068497
0.43531915
0.480409979
0.52703451
0.561818865
0.60733913
0.638626645
0.666417319
0.66003712
0.68574196
0.678870977
0.680281982
0.678502888
0.659362291
0.659300943
0.645252236
0.64672459
0.672797518
0.66574249
0.66733754
0.678870977
0.697704833
0.720710359
0.758009984
0.770463641
0.795432305
0.832363841
0.870338295
0.910889367
0.96285118
0.991930164
1.020272971
1.059106298
1.077878806
1.113767426
1.155300067
1.184440399
1.208182101
1.244684201
1.269407472
1.30155386
1.34216628
1.373392446
1.39296248
1.439034878
1.45357437
1.482101222
1.506824493
1.539891101
1.588724162
1.590441908
1.595963234
1.561731013
1.482714702
1.348791871
1.207814013
1.005549435
0.805677432
0.588689318
0.402988718
0.226428981
0.0687031
-0.067428261
-0.167793699
-0.236196794
-0.242392949
-0.27570495
-0.282514585
-0.274846077
-0.269202055
-0.240061723
-0.223497745
-0.195768418
-0.179695225
-0.150125456
-0.110862693
-0.089206825
-0.047306095
-0.028226846
-0.007736592
0.009440867
0.002140447
0.004778414
-0.001233697
-0.032459863
-0.061845587
-0.086016726
-0.091538052
-0.096936682
-0.078839002
-0.08620077
-0.093071754
-0.075710251
-0.072642847
-0.05000541
-0.033380084
-0.013257918
0.049746547
0.05950089
0.088579874
0.132995874
0.166185179
0.20710434
0.254342351
0.281642241
0.315690419
0.353174088
0.400902884
0.42801873
0.459244896
0.493109029
0.5178323
0.54672724
0.591020545
0.630467352
0.645558976
0.657583198
0.680527375
0.700894933
0.722060016
0.759543685
0.783346735
0.807272482
0.833897543
0.832241145
0.792303553
0.770279597
0.667214844
0.517893648
0.312991104
0.098825001
-0.130494075
-0.358892929
-0.576187783
-0.759741201
-0.914092938
-1.036973116
-1.133596322
-1.193778776
-1.232734799
-1.24825586
-1.232918843
-1.224636854
-1.212428589
-1.197582357
-1.14954682
-1.136172941
-1.11654156
-1.081082377
-1.047279592
-1.014151635
-0.97304843
-0.953785137
-0.950472342
-0.947711679
-0.952496828
-0.973845955
-1.002802243
-1.023721934
-1.035868851
-1.037954686
-1.019857006
-1.029979437
-1.035071326
-1.035439415
-1.040838045
-1.027096078
-1.03844547
-1.010716144
-0.975011569
-0.932865446
-0.909859921
-0.887161136
-0.864462351
-0.814831765
-0.76513983
-0.722993708
-0.694466857
-0.650418945
-0.624039276
-0.583610899
-0.539808379
-0.505208069
-0.47312303
-0.436804974
-0.401284443
-0.386438211
-0.35220599
-0.322329481
-0.307053812
-0.283864243
-0.255276043
-0.228282894
-0.192087534
-0.172394805
-0.1503095
-0.107917986
-0.112641787
-0.079023046
-0.050802935
-0.050066758
-0.062827156
-0.13319339
-0.250368198
-0.433676223
-0.644713574
-0.866548186
-1.099425449
-1.323713983
-1.512236594
-1.694010917
-1.83357777
-1.930569064
-2.006824712
-2.040566149
-2.044737817
-2.045228602
-2.031547983
-2.014063784
-1.967807341
-1.93198007
-1.931550633
-1.883392401
-1.844865814
-1.798916112
-1.752230233
-1.725421127
-1.654011977
-1.639840573
-1.638859004
-1.63296959
-1.634073855
-1.643030673
-1.640822143
-1.650576485
-1.651926143
-1.675115712
-1.670882696
-1.661435093
-1.674440883
-1.671189436
-1.632478805
-1.608430363
-1.601988816
-1.587081236
-1.526039909
-1.492727908
-1.461379046
-1.419846404
-1.378865895
-1.346412768
-1.288377496
-1.262059175
-1.225557075
-1.180772986
-1.130283527
-1.095867261
-1.036482332
-1.011575017
-0.992925204
-0.963110043
-0.936669026
-0.902436805
-0.91593338
-0.886854396
-0.84164087
-0.812377842
-0.782133245
-0.752440781
-0.707595343
-0.685203299
-0.655756226
-0.619867607
-0.576678568
-0.567353662
-0.570359717
-0.622750966
-0.724895498
-0.858756981
-1.046113978
-1.260893562
-1.47806572
-1.681986696
-1.894435053
-2.068479519
-2.190500825
-2.285958418
-2.330190374
-2.364974729
-2.357244872
-2.35350264
-2.323073999
-2.285283589
-2.257738307
-2.225714616
-2.160992405
-2.114735962
-2.052529022
-2.002100911
-1.963758369
-1.889527207
-1.855540378
-1.821798941
-1.781861349
-1.779591471
-1.737690741
-1.735666255
-1.74787452
-1.756892686
-1.74597273
-1.761800531
-1.758610432
-1.747690476
-1.735359514
-1.706464575
-1.705605702
-1.666772375
-1.657815557
-1.60597644
-1.550579136
-1.481194472
-1.439845874
-1.390706072
-1.370338514
-1.317333784
-1.26095491
-1.22255102
-1.159178466
-1.115191902
-1.083474951
-1.032249315
-0.983109513
-0.927282772
-0.894093468
-0.857407324
-0.845567147
-0.791519499
-0.748269112
-0.717411034
-0.673363122
-0.637290458
-0.625327585
-0.606739121
-0.560912115
-0.518643296
-0.481282323
-0.441037991
-0.406069593
-0.383064068
-0.339568288
-0.304047757
-0.29190084
-0.324415315
-0.411468223
-0.528888423
-0.689313619
-0.876609269
-1.100284322
-1.317640524
-1.520518583
-1.691556994
-1.838669659
-1.93609039
-2.007928977
-2.046271519
-2.019094325
-2.010628292
-1.985905021
-1.940568799
-1.872227052
-1.838362919
-1.814621217
-1.759592001
-1.697937193
-1.653091756
-1.591927733
-1.544873765
-1.528064395
-1.471992261
-1.424631554
-1.402791642
-1.363835619
-1.360706867
-1.373221873
-1.380706337
-1.347517033
-1.341995707
-1.344633674
-1.321014668
-1.319235574
-1.293039949
-1.255188192
-1.214453075
-1.181325119
-1.145865936
-1.099486797
-1.05844494
-1.006299083
-0.958202198
-0.902988938
-0.853174307
-0.828819124
-0.739066902
-0.689006879
-0.647535585
-0.592690413
-0.545207009
-0.532446611
-0.461650942
-0.409198344
-0.365641216
-0.310182564
-0.282207845
-0.269631491
-0.213007225
-0.171106495
-0.12619971
-0.066569388
-0.022828217
0.014348712
0.03600458
0.081831586
0.11250562
0.153486129
0.198699654
0.239189379
0.259188849
0.302930021
0.358327325
0.387467657
0.442067437
0.478508189
0.516482643
0.577339926
0.616602689
0.645558976
0.690343065
0.725863596
0.755249321
0.798806448
0.834326979
0.869295378
0.926287732
0.929661876
0.971807998
1.022788242
1.062603138
1.100577591
1.15014683
1.187017018
1.237935914
1.240328488
1.19425609
1.076774541
0.912239025
0.701385718
0.46991946
0.225263367
-0.009024901
-0.211105435
-0.394290764
-0.545022965
-0.641768867
-0.709497133
-0.751459211
-0.759925245
-0.763176692
-0.728146946
-0.676737266
-0.626370502
-0.576433176
-0.513060622
-0.455945571
-0.408830256
-0.358831581
-0.310734696
-0.272269458
-0.224970098
-0.19159675
-0.1614135
-0.149082539
-0.147610185
-0.130187334
-0.135217876
-0.142027511
-0.151229721
-0.163867423
-0.166996175
-0.15951171
-0.154603865
-0.135892704
-0.109881124
-0.082642582
-0.052950118
-0.029085719
0.018152292
0.069930061
0.074285774
0.113119101
0.181890284
0.225754152
0.279188319
0.323788364
0.375566132
0.414644851
0.471453161
0.509550311
0.552555306
0.596541871
0.634454976
0.664699573
0.697152701
0.730219309
0.752550006
0.788745365
0.821259841
0.82984857
0.874264571
0.900153455
0.94285171
0.969783512
0.990641855
1.010825369
1.043094452
1.069596817
1.104687912
1.137999912
1.171005172
1.204807957
1.249346654
1.284008312
1.297382191
1.349282656
1.390999342
1.439832403
1.464923763
1.471488006
1.46026131
1.411980381
1.307811362
1.171802697
0.961808263
0.742059486
0.511513449
0.289065357
0.090481664
-0.097243422
-0.218528551
-0.31282053
-0.401775228
-0.431038256
-0.438768113
-0.432326566
-0.417787074
-0.380794189
-0.336132796
-0.298342387
-0.249509325
-0.21030791
-0.150370848
-0.10301014
-0.036754228
-0.007307156
0.01919521
0.045636227
0.075512735
0.075144647
0.0687031
0.069132536
0.067721531
0.045820271
0.039194679
0.035759188
0.027906635
0.026188889
0.020115431
0.029378989
0.07219994
0.074285774
0.085144382
0.118395034
0.14931446
0.186123301
0.226306285
0.252869998
0.295138816
0.335567192
0.366547966
0.405197249
0.445318885
0.492372852
0.540531085
0.57623566
0.574886003
0.627215904
0.671754601
0.711692193
0.73144627
0.771199818
0.79843836
0.805370692
0.812977852
0.838559996
0.864632925
0.89365056
0.92475403
0.958556815
0.988801413
1.018493877
1.06156022
1.082111823
1.101129724
1.122969636
1.127693437
1.089534939
1.002972816
0.862731134
0.677950756
0.479612454
0.231888959
-0.009883774
-0.237975888
-0.412695184
-0.567844446
-0.689252271
-0.744956316
-0.807101908
-0.851885998
-0.841088738
-0.834279102
-0.820721179
-0.787777267
-0.741214084
-0.709067697
-0.675878393
-0.636676978
-0.600665662
-0.554347871
-0.516680158
-0.481036931
-0.449749417
-0.427664112
-0.408155427
-0.410854742
-0.406437681
-0.42711198
-0.440853947
-0.453184908
-0.482202544
-0.486864997
-0.503306279
-0.525759672
-0.516128025
-0.508091429
-0.495637771
-0.480546146
-0.454657262
-0.402879493
-0.3693221
-0.334599094
-0.261349502
-0.250981679
-0.222086739
-0.19760886
-0.144481434
-0.106875069
-0.082765278
-0.036631532
0.01220153
0.049562503
0.071954547
0.10551194
0.135204405
0.188331831
0.209803655
0.237471633
0.261090639
0.284586949
0.330904739
0.342070088
0.351026905
0.373848386
0.39372516
0.425319415
0.436730155
0.458999504
0.493477118
0.507709869
0.543966577
0.567953671
0.62003818
0.638565297
0.654822534
0.631510269
0.572370732
0.433171967
0.239312075
0.020422171
-0.240123071
-0.481650412
-0.718024515
-0.944460231
-1.119363571
-1.254206623
-1.355062845
-1.399785586
-1.448311907
-1.458311642
-1.417269785
-1.409662625
-1.379418028
-1.338314823
-1.302671596
-1.258071551
-1.198502578
-1.15555893
-1.119854355
-1.083474951
-1.026973382
-0.991698243
-0.966974972
-0.93814138
-0.953846485
-0.959061071
-0.956177712
-0.970717204
-0.966484187
-0.991698243
-1.017464431
-1.015930729
-1.028200343
-1.025501028
-1.007955481
-0.994397558
-0.970165071
-0.943294618
-0.904952076
-0.876670617
-0.815322549
-0.769863632
-0.738392073
-0.688945531
-0.658578238
-0.623057707
-0.572629595
-0.518704644
-0.472754942
-0.426314455
-0.381837106
-0.353678343
-0.313434011
-0.276441127
-0.253128861
-0.19540033
-0.171719976
-0.133561478
-0.107733942
-0.094482759
-0.053747642
-0.012337697
0.019563298
0.032998525
0.052077774
0.091892669
0.129621731
0.159927676
0.206858947
0.237655677
0.288390529
0.343481093
0.36231495
0.397037956
0.417037426
0.456606929
0.518077693
0.533782798
0.57402713
0.612676412
0.649301208
0.681815684
0.691876767
0.681570292
0.629179042
0.489550841
0.298083523
0.059255497
-0.224356617
-0.504839981
-0.734649841
-0.943417314
-1.115621339
-1.240280611
-1.326720038
-1.380031509
-1.400460415
-1.40156468
-1.372301652
-1.333161585
-1.283469651
-1.244574976
-1.202796942
-1.125682422
-1.086665051
-1.034580542
-0.961392298
-0.925871767
-0.878388363
-0.845015014
-0.817960516
-0.80673382
-0.80102845
-0.798574527
-0.806304384
-0.802194063
-0.816794903
-0.832254616
-0.823052406
-0.828451036
-0.831457091
-0.824033975
-0.815322549
-0.800783058
-0.797777002
-0.759618504
-0.710356006
-0.67152268
-0.640235165
-0.597598259
-0.587843916
-0.519686213
-0.476374478
-0.4233084
-0.370978498
-0.310366608
-0.272453502
-0.22809885
-0.185891379
-0.140861898
-0.104973279
-0.071415886
-0.030312681
0.001526966
0.022078569
0.046924536
0.07281342
0.106186769
0.101524316
0.142198084
0.165326306
0.219312605
0.230846042
0.244649357
0.226428981
0.276182263
0.3099237
0.34832759
0.379860497
0.409246221
0.444644056
0.473968432
0.505808079
0.525378113
0.524641936
0.46261904
0.375995569
0.220969003
-0.001601785
-0.238282629
-0.490607229
-0.73213457
-0.966545535
-1.128933869
-1.258807728
-1.340093917
-1.39555257
-1.419416968
-1.400460415
-1.388681586
-1.359909343
-1.322241629
-1.27524901
-1.235863551
-1.20255155
-1.132492057
-1.070898598
-1.018507348
-0.933478927
-0.895075037
-0.871026595
-0.820966572
-0.787777267
-0.771765422
-0.768943411
-0.776980007
-0.778881797
-0.800599013
-0.803727765
-0.808696958
-0.799678792
-0.813850196
-0.811580317
-0.775569002
-0.768207234
-0.737901289
-0.715263852
-0.666062702
-0.612137751
-0.586985043
-0.551587208
-0.495944511
-0.439933726
-0.391346057
-0.32742137
-0.258527491
-0.212761833
-0.166321346
-0.13319339
-0.088470649
-0.060986714
-0.029637852
0.011710745
0.054040912
0.085451122
0.113977973
0.148394239
0.182871853
0.213668583
0.235569843
0.262685689
0.277715965
0.276795744
0.339984253
0.365443701
0.39182337
0.412804409
0.428264122
0.441638001
0.48261851
0.528261472
0.535071107
0.530347306
0.461637471
0.328512165
0.170540891
-0.033686824
-0.251104375
-0.519195429
-0.758452891
-0.973293823
-1.1565405
-1.285494137
-1.384080481
-1.439723178
-1.447146294
-1.450275046
-1.438557565
-1.385552835
-1.337885386
-1.280402247
-1.239421738
-1.197766401
-1.130528919
-1.084088432
-1.048629249
-0.998998663
-0.942313049
-0.893295943
-0.870167722
-0.842806484
-0.829862041
-0.817776472
-0.815874682
-0.8391256
-0.837346506
-0.846303323
-0.849922859
-0.846241975
-0.831334395
-0.833052141
-0.822745666
-0.800537665
-0.767225665
-0.737042416
-0.690663277
-0.636308889
-0.591586148
-0.545452402
-0.480607494
-0.444350787
-0.42202009
-0.372144112
-0.309446387
-0.256503005
-0.216442717
-0.158959578
-0.123929831
-0.072642847
-0.036876924
0.009256823
0.04870363
0.072629376
0.107843167
0.143854482
0.170663588
0.210294439
0.248943721
0.263115125
0.286550087
0.307224385
0.347836806
0.374645911
0.397896829
0.431883658
0.461760167
0.497403394
0.519672742
0.565990533
0.579671152
0.621387838
0.660343861
0.687275662
0.721875972
0.762795133
0.796781962
0.838559996
0.891626074
0.926226384
0.962053655
0.995365656
1.009721104
0.970396992
0.872976262
0.702428635
0.476729095
0.224404495
-0.05669235
-0.335273923
-0.588212004
-0.778636405
-0.950595038
-1.078505758
-1.134761936
-1.181386467
-1.185619483
-1.168503373
-1.097953095
-1.044212188
-0.991514199
-0.936853071
-0.883602948
-0.827162726
-0.778697753
-0.726919985
-0.665878658
-0.616309419
-0.5693168
-0.526189108
-0.483858942
-0.475822345
-0.467663052
-0.468951362
-0.481834456
-0.488153307
-0.492263627
-0.49441081
-0.500668312
-0.49471755
-0.484779163
-0.480730191
-0.46361408
-0.444841571
-0.409934521
-0.376990609
-0.327789459
-0.290551182
-0.258036706
-0.191780794
-0.140555158
-0.077673389
-0.005712106
0.050175984
0.098150172
0.160970593
0.205263898
0.247471368
0.297838131
0.345198839
0.381823635
0.427957382
0.473477648
0.514764897
0.547892853
0.570652986
0.608382048
0.628197473
0.665313054
0.684944436
0.721998668
0.759973122
0.780463376
0.804879907
0.828805653
0.852792748
0.883405433
0.924079202
0.981500993
1.00285012
1.043646585
1.079719248
1.126527824
1.163582056
1.202354035
1.226525173
1.275603627
1.291922213
1.300142854
1.252230013
1.140515183
0.964814318
0.725066071
0.480962112
0.217778903
-0.037613101
-0.249325281
-0.43790924
-0.579071142
-0.670725155
-0.720294393
-0.747594283
-0.738330725
-0.718699344
-0.66041868
-0.605328115
-0.549501374
-0.480607494
-0.430486124
-0.359874498
-0.293495889
-0.242883734
-0.181167578
-0.132825301
-0.095341632
-0.03859467
-0.012767133
0.009931651
0.027599895
0.022876094
0.013428491
0.007477729
-0.011662868
-0.02209204
-0.035649963
-0.030189985
-0.018104415
-0.018165763
0.017416116
0.038826591
0.052139122
0.093855807
0.13821046
0.188515875
0.244097224
0.291580628
0.334892364
0.384706994
0.436178023
0.492740941
0.536298069
0.573290953
0.615007639
0.676417054
0.711446801
0.751323044
0.785187177
0.813100548
0.842118184
0.869724814
0.893527864
0.927453345
0.949293257
0.966532064
0.994874871
1.015487822
1.046039159
1.078062851
1.129411183
1.15996252
1.174686056
1.204378521
1.186280841
1.152232664
1.042051535
0.875000748
0.678012104
0.437650376
0.199865268
-0.054054383
-0.280428751
-0.468337881
-0.621830745
-0.713239366
-0.804463942
-0.81624277
-0.816917599
-0.798206439
-0.779617974
-0.735017929
-0.707779388
-0.641584823
-0.570482413
-0.522140136
-0.457724665
-0.398707825
-0.309507735
-0.261472198
-0.206381634
-0.166689434
-0.130923511
-0.098961168
-0.098163643
-0.081415621
-0.050680239
-0.04749014
-0.058103355
-0.056017521
-0.080986184
-0.057428526
-0.028288195
-0.02049699
0.010177044
0.046985884
0.075328691
0.120542217
0.152872648
0.210355787
0.260783898
0.306304164
0.355382618
0.410779923
0.46611588
0.533353361
0.57562218
0.6273386
0.686907574
0.714452856
0.746415199
0.800217454
0.825554206
0.857945985
0.899662671
0.9336495
0.963341965
1.002297987
1.022236109
1.058860905
1.089412243
1.102540729
1.134993857
1.166772156
1.205728179
1.228426963
1.244193417
1.240880621
1.183520178
1.064995712
0.868068416
0.644884148
0.360658552
0.11281236
-0.111537522
-0.322697569
-0.496742036
-0.617597729
-0.698209089
-0.745815189
-0.775078217
-0.76323804
-0.759618504
-0.711644316
-0.662688558
-0.604407894
-0.556433706
-0.501895274
-0.43600745
-0.380610145
-0.312881879
-0.256380309
-0.204295799
-0.156444307
-0.11031056
-0.081722361
-0.099022516
-0.060127841
-0.049207885
-0.04018972
-0.034177609
-0.028533587
-0.017981719
-0.004362448
-0.001295045
0.00109753
0.033182569
0.06170942
0.127903985
0.150418725
0.184589599
0.221643832
0.274587214
0.338082463
0.411761492
0.445625625
0.500409449
0.541819395
0.591143241
0.64322775
0.719912834
0.762365696
0.798008923
0.84003235
0.884325654
0.91174824
0.964937014
1.004997302
1.03745043
1.058308773
1.104074431
1.129165791
1.172906963
1.204439869
1.232844024
1.259775826
1.290449859
1.321430633
1.345847164
1.368239209
1.42627448
1.479647299
1.513818172
1.549093311
1.602650174
1.638722837
1.669887655
1.679764694
1.662464539
1.574982195
1.415661265
1.20376504
0.94825034
0.667644281
0.397406044
0.160909245
-0.060925366
-0.192455623
-0.319691514
-0.381039581
-0.425639626
-0.40521072
-0.398707825
-0.346868708
-0.280796839
-0.2153998
-0.159573058
-0.086875599
-0.007245807
0.045329486
0.103119366
0.163056427
0.224097754
0.262440296
0.32930969
0.365627745
0.373664342
0.391087193
0.385320475
0.371333116
0.395504254
0.402497934
0.412743061
0.402436586
0.408448696
0.400044011
0.39213011
0.403908939
0.443478443
0.485869957
0.529058997
0.571634555
0.588259881
0.649607949
0.720280922
0.76892994
0.824879377
0.885245875
0.931563666
0.982789302
1.031867756
1.074688707
1.130699492
1.165238454
1.165115758
1.222476201
1.288425373
1.3240686
1.352104667
1.393453264
1.412041729
1.436151519
1.46087479
1.493082526
1.514738393
1.532099896
1.573755234
1.601361864
1.62338582
1.650624362
1.675654374
1.698475855
1.745345778
1.780314177
1.77828969
1.755345513
1.679396606
1.522100161
1.330142059
1.064504928
0.800953631
0.536788853
0.288206485
0.073120161
-0.101292395
-0.184787114
-0.252024596
-0.293373193
-0.290857922
-0.278649657
-0.252883469
-0.206381634
-0.154481169
-0.095280284
-0.033011996
0.036740757
0.058826061
0.118395034
0.184344207
0.250170683
0.307653822
0.348572983
0.34832759
0.378326795
0.396792564
0.399737271
0.379860497
0.355934751
0.332867877
0.325015325
0.307837866
0.313911325
0.31722412
0.323297579
0.310537181
0.342683568
0.367529535
0.402559282
0.430534001
0.461392078
0.475808874
0.524151151
0.563843351
0.607155086
0.648135595
0.698747751
0.706048171
0.758255376
0.81273246
0.843590537
0.864510228
0.876227709
0.893098428
0.95015213
0.970335644
0.986899623
0.98064212
1.003218208
1.026530474
1.049658695
1.063032574
1.080762165
1.099718718
1.115975956
1.13456442
1.182661305
1.189348245
1.197384841
1.184624443
1.135300597
1.023401723
0.845124239
0.618320434
0.367652232
0.085451122
-0.187547777
-0.442939781
-0.659989243
-0.842683787
-0.971023944
-1.088444145
-1.133780367
-1.131633184
-1.121633449
-1.088750885
-1.063046045
-1.030347525
-0.996912829
-0.955993668
-0.919184827
-0.873235125
-0.835137975
-0.799494748
-0.750354946
-0.697656956
-0.676369177
-0.64103269
-0.661584293
-0.659621155
-0.675633
-0.69342394
-0.728208294
-0.738085333
-0.763606129
-0.761458946
-0.782746726
-0.791458151
-0.784648516
-0.784464472
-0.78072224
-0.774280692
-0.750600338
-0.705938946
-0.68962036
-0.636247541
-0.612260447
-0.58612617
-0.558151451
-0.528704379
-0.480546146
-0.438890809
-0.38870809
-0.345457702
-0.335826056
-0.299876088
-0.27220811
-0.23791454
-0.209694429
-0.177241302
-0.175646252
-0.148223666
-0.120003555
-0.10840877
-0.081845057
-0.058103355
-0.041109941
-0.032766603
-0.00558941
0.00459437
0.023428226
0.027906635
0.051648337
0.075819476
0.11219888
0.163424516
0.173669643
0.191276538
0.217840251
0.242686219
0.239434771
0.281151457
0.322561402
0.348572983
0.380105889
0.415196984
0.442558222
0.458570067
0.448877073
0.376731746
0.218883168
0.02839742
-0.256625701
-0.57281364
-0.877590838
-1.156601848
-1.416042824
-1.620699976
-1.77738294
-1.886766544
-1.955353683
-1.995352623
-1.999156203
-1.972101706
-1.927378965
-1.872533793
-1.825909261
-1.812228642
-1.733396376
-1.682232088
-1.615976175
-1.56376897
-1.51456782
-1.452483576
-1.406349829
-1.361872481
-1.33966448
-1.336167641
-1.34156627
-1.339909873
-1.347639729
-1.372301652
-1.384939354
-1.410398802
-1.422361675
-1.432790846
-1.426103907
-1.429723443
-1.398313233
-1.382730824
-1.350584436
-1.332425408
-1.292549165
-1.256108413
-1.220833274
-1.172368301
-1.13175588
-1.081327769
-1.037157161
-0.969796983
-0.923049756
-0.896301998
-0.865934705
-0.831518439
-0.801089798
-0.779986063
-0.727349421
-0.689436315
-0.67023437
-0.630419475
-0.599684093
-0.571586678
-0.547660932
-0.538274678
-0.508643561
-0.482386588
-0.452755472
-0.429872643
-0.399198609
-0.378156222
-0.37410725
-0.344476133
-0.312391094
-0.287913215
-0.247668883
-0.228282894
-0.203130186
-0.171351887
-0.121598605
-0.084728416
-0.04239825
-0.011417476
0.017722856
0.055390569
0.078334746
0.105757332
0.122628051
0.117168073
0.040973773
-0.09319445
-0.318525901
-0.56201638
-0.854646661
-1.112860676
-1.363835619
-1.581130473
-1.748610697
-1.87007987
-1.945047208
-1.99989238
-1.997867894
-1.991794435
-1.958482435
-1.917195186
-1.862902146
-1.798854764
-1.733396376
-1.661189701
-1.606589921
-1.544812417
-1.491684991
-1.432606802
-1.368988857
-1.321934889
-1.289788502
-1.272181606
-1.289052325
-1.288070756
-1.290954115
-1.317027044
-1.339848525
-1.357516768
-1.360890912
-1.389601807
-1.388497542
-1.393221343
-1.37174952
-1.352179486
-1.317395132
-1.260893562
-1.239237694
-1.201815373
-1.164638444
-1.106664521
-1.051083172
-1.015317249
-0.940902043
-0.898510529
-0.854094528
-0.800844406
-0.754956051
-0.699313354
-0.668209884
-0.617843121
-0.569194104
-0.530606169
-0.504839981
-0.457111185
-0.438952157
-0.416928201
-0.388217305
-0.361346852
-0.340733901
-0.309753127
-0.290428486
-0.278772353
-0.25441717
-0.225522231
-0.193682584
-0.172824241
-0.151720506
-0.112887179
-0.087305035
-0.050128106
-0.01669341
-0.00558941
-0.025956968
-0.081722361
-0.207485899
-0.389444267
-0.630971607
-0.875443655
-1.118382002
-1.350277696
-1.562726053
-1.735052774
-1.871797616
-1.934065904
-1.973328667
-2.008665154
-2.001548778
-1.981733352
-1.947317087
-1.899833683
-1.844006941
-1.777628333
-1.713703646
-1.650269745
-1.574320838
-1.516899047
-1.4707653
-1.41616552
-1.360768215
-1.305493607
-1.264329054
-1.263224789
-1.262365916
-1.297088922
-1.304327994
-1.313714248
-1.306843264
-1.33175058
-1.338130779
-1.333100237
-1.321321408
-1.315677386
-1.300033629
-1.261629739
-1.24794912
-1.242795882
-1.187337229
-1.125068941
-1.098689272
-1.030040785
-0.96353948
-0.899798838
-0.835996848
-0.794893643
-0.715509244
-0.667105619
-0.624591408
-0.577046656
-0.533673573
-0.502999539
-0.431835781
-0.384475073
-0.359015625
-0.325703625
-0.31570389
-0.289999049
-0.241718121
-0.221350562
-0.201351092
-0.20079896
-0.176811865
-0.147610185
-0.103071489
-0.092151533
-0.065035687
-0.039330847
-0.009454338
0.034225486
0.08330394
0.088825266
0.126492979
0.139007985
0.122137266
0.032691784
-0.096507245
-0.312759182
-0.566433441
-0.83783729
-1.107768786
-1.350768481
-1.542113102
-1.71677105
-1.848792091
-1.931550633
-1.999769684
-2.0103829
-2.040320757
-2.007008756
-1.952163584
-1.89198113
-1.830939803
-1.761309747
-1.696894276
-1.651926143
-1.588001457
-1.531499887
-1.474936969
-1.40475478
-1.364326403
-1.288009408
-1.2850647
-1.272795087
-1.268684767
-1.274206093
-1.287641319
-1.295800612
-1.314573121
-1.317947265
-1.322977806
-1.318683441
-1.300769806
-1.303346425
-1.295125784
-1.265678711
-1.234023109
-1.181693207
-1.162123174
-1.106480477
-1.049978907
-0.994397558
-0.959183767
-0.8867317
-0.843604008
-0.765998703
-0.701951321
-0.645449751
-0.602076668
-0.571463982
-0.552262037
-0.496742036
-0.445393704
-0.39410672
-0.368647272
-0.32551958
-0.305090674
-0.276809215
-0.24840506
-0.232025126
-0.212455092
-0.195216286
-0.179449832
-0.152149942
-0.115463798
-0.089513566
-0.064790295
-0.025956968
-0.041662073
0.021281044
0.054654392
0.082076978
0.109560913
0.128946902
0.087598305
0.009440867
-0.134297655
-0.344292089
-0.585451341
-0.848082417
-1.089487062
-1.33714921
-1.549536218
-1.724991691
-1.835418212
-1.904741528
-1.968850258
-1.979463474
-1.962347363
-1.927685705
-1.893514832
-1.835418212
-1.809222587
-1.727261569
-1.66628159
-1.599412197
-1.525119688
-1.446778206
-1.380890382
-1.333468326
-1.289113673
-1.237090512
-1.21015871
-1.205066821
-1.232918843
-1.232305363
-1.237335904
-1.258378291
-1.288132104
-1.27555575
-1.303898557
-1.296536789
-1.287334579
-1.268132634
-1.248133164
-1.221201362
-1.171816168
-1.1168483
-1.099548145
-1.043046575
-0.986545005
-0.942435745
-0.906485777
-0.853542395
-0.794709599
-0.735017929
-0.686982393
-0.62201479
-0.566740181
-0.530238081
-0.493981373
-0.45502535
-0.416744156
-0.375456907
-0.371285239
-0.339752332
-0.300550917
-0.278036176
-0.258956927
-0.231963778
-0.202025921
-0.17190402
-0.15221129
-0.123684439
-0.088347952
-0.053379554
-0.043195775
-0.015159708
-0.029269764
-0.113562008
-0.250184154
-0.424903449
-0.682013199
-0.93274275
-1.191631594
-1.432852195
-1.641558319
-1.823393991
-1.988052203
-2.034001906
-2.090810216
-2.102282305
-2.094307056
-2.06528942
-2.019094325
-1.941243628
-1.866153594
-1.805603051
-1.748488001
-1.677201546
-1.618982231
-1.559106517
-1.501746074
-1.438434869
-1.393221343
-1.349234779
-1.325431729
-1.301812723
-1.295923308
-1.302487552
-1.310953585
-1.307763485
-1.334633939
-1.350645784
-1.361627088
-1.361197652
-1.370031774
-1.35966395
-1.333836414
-1.307579441
-1.273101827
-1.248317208
-1.183779041
-1.137338555
-1.12255367
-1.051880697
-0.987894663
-0.939306993
-0.87943128
-0.831579787
-0.735140626
-0.692074282
-0.654345221
-0.618886038
-0.585205949
-0.566617485
-0.523060357
-0.488337351
-0.443123825
-0.393984023
-0.372880288
-0.345825791
-0.315765238
-0.272882939
-0.25791401
-0.236503535
-0.20681107
-0.186688904
-0.163990119
-0.128776329
-0.094360063
-0.064728946
-0.068348482
-0.099820041
-0.181351622
-0.340549857
-0.553059562
-0.809003699
-1.072923084
-1.317027044
-1.551560705
-1.757751559
-1.923575385
-2.032345508
-2.095902106
-2.108478459
-2.101546128
-2.087620116
-2.040014016
-1.990751518
-1.932900291
-1.869650433
-1.810510897
-1.735911647
-1.671557524
-1.615792131
-1.547082296
-1.471992261
-1.413404857
-1.381074426
-1.323713983
-1.290033894
-1.275617098
-1.275187662
-1.26856207
-1.277028104
-1.285555485
-1.285187397
-1.287641319
-1.285616833
-1.281445165
-1.238256125
-1.216906998
-1.196232699
-1.1644544
-1.119977051
-1.06163504
-1.016421514
-0.957036585
-0.913172717
-0.84832781
-0.786918394
-0.729557951
-0.67532626
-0.615511894
-0.562691208
-0.508582213
-0.443246521
-0.397971648
-0.341531426
-0.290673878
-0.244785524
-0.223620441
-0.181903755
-0.124420616
-0.084237632
-0.051661808
-0.015711841
0.011281309
0.060605155
0.101524316
0.128946902
0.161154637
0.189497444
0.236428716
0.281028761
0.320536916
0.390289668
0.430902089
0.462005559
0.500961582
0.552371262
0.602860722
0.633657451
0.666233275
0.643595838
0.566849406
0.425442111
0.214343412
-0.010251863
-0.267545657
-0.530790213
-0.759005024
-0.967404408
-1.115744035
-1.212612633
-1.267887242
-1.305616303
-1.296536789
-1.249605518
-1.192490467
-1.142614488
-1.074211393
-1.010777492
-0.942251701
-0.861701688
-0.798022394
-0.743913399
-0.674651431
-0.607966082
-0.549378678
-0.498337086
-0.46422756
-0.449197284
-0.439688334
-0.419566168
-0.417480333
-0.410486654
-0.416682808
-0.420731781
-0.425946367
-0.422388179
-0.414842366
-0.396683338
-0.368585924
-0.336132796
-0.307728641
-0.275398209
-0.227117281
-0.186995645
-0.143622561
-0.090985919
-0.02939246
0.01821364
0.083549332
0.128088029
0.173792339
0.230784694
0.285200429
0.343481093
0.391025845
0.44071778
0.497403394
0.534703019
0.583597428
0.630896788
0.673226955
0.715863861
0.750954956
0.797211399
0.833836195
0.862117654
0.894570781
0.927023909
0.952422009
0.98984433
1.029659225
1.05714316
1.097510188
1.121435934
1.153889062
1.222598897
1.255174721
1.302474081
1.343147849
1.391183386
1.436212867
1.487377155
1.50848089
1.518726018
1.485045929
1.374435363
1.218304532
1.018371181
0.794389387
0.560591903
0.319493999
0.140603035
-0.017061498
-0.12080108
-0.20840612
-0.259018275
-0.261533546
-0.241350032
-0.220368993
-0.200860308
-0.141966163
-0.075158118
-0.014178139
0.049378459
0.125940847
0.205202549
0.26010907
0.333788098
0.403418155
0.45212852
0.503108764
0.531083483
0.573843086
0.584517649
0.591265937
0.612246976
0.618443131
0.60353555
0.608259351
0.614578202
0.617461562
0.638442601
0.670466292
0.695618999
0.728010779
0.760402558
0.811996283
0.857516549
0.916778782
0.958618164
1.024076551
1.071805348
1.126466476
1.175728974
1.241984886
1.306829793
1.358546214
1.404311872
1.44946405
1.49516836
1.547191521
1.595901886
1.63387634
1.695837888
1.739701756
1.775835768
1.799270729
1.835956874
1.870311791
1.904237272
1.936813096
1.974051373
2.012087175
2.062576634
2.098465253
2.151408635
2.196928901
2.244105565
2.271037367
2.292938627
2.323428616
2.326434671
2.276251952
2.157543442
2.02619723
1.868594045
1.669090131
1.472101487
1.285112578
1.115669216
0.973525744
0.866166626
0.799910714
0.75874616
0.744022624
0.753470227
0.785187177
0.823959156
0.871258516
0.910828019
0.974936749
1.044137369
1.108000707
1.132478586
1.197936974
1.289038854
1.344681551
1.385048579
1.432163895
1.485536713
1.513204692
1.516149399
1.514186261
1.540013797
1.559093046
1.567497731
1.579031168
1.576331853
1.584613842
1.599828163
1.636698351
1.685776805
1.717064319
1.750560364
1.790866044
1.839637758
1.865097205
1.955278864
1.99159692
2.045521871
2.09570459
2.164782514
2.207235377
2.270362538
2.308643732
2.354654782
2.404039976
2.435266143
2.472627116
2.540478078
2.569802454
2.599065482
2.624156842
2.655935141
2.688879053
2.737773462
2.766545706
2.79912153
2.827464337
2.852248956
2.889487233
2.941326349
2.964822659
2.999545665
3.030403743
3.066476407
3.089604628
3.110524319
3.073101998
2.997827919
2.867279232
2.711639186
2.517043116
2.307355422
2.124047397
1.955462909
1.807368674
1.692954529
1.593632008
1.50437057
1.491426128
1.495229708
1.495352404
1.524308692
1.570258394
1.615717312
1.654427942
1.704119877
1.765038508
1.823564564
1.883317581
1.946996875
1.995768589
2.03539944
2.078281739
2.116931022
2.140243287
2.160733542
2.168524746
2.171960238
2.185579509
2.196560813
2.196499465
2.19410689
2.206192459
2.225885189
2.245332526
2.260056063
2.274963643
2.318643467
2.349930981
2.388580263
2.435266143
2.477780353
2.528331161
2.552440951
2.602439626
2.660597594
2.70262102
2.755012269
2.798998833
2.846788978
2.894701818
2.924516979
2.961019079
2.995496693
3.035004848
3.038931125
3.083531169
3.118622264
3.149909778
3.189479282
3.20984684
3.21174863
3.252238354
3.2904582
3.323892897
3.355364455
3.382296257
3.380394467
3.428736744
3.459226733
3.468612988
3.449533739
3.412172766
3.3269603
3.176289447
3.004882947
2.801759496
2.583114985
2.38140254
2.200916526
2.021902865
1.882888145
1.797798376
1.717309711
1.66718834
1.66467307
1.666513512
1.676513247
1.709150418
1.735039303
1.761909756
1.818349978
1.863318112
1.889575084
1.943745428
1.989142997
2.028037672
2.035215396
2.035706181
2.087115861
2.111471044
2.103557143
2.111348347
2.08490733
2.056503175
2.050736457
2.036749098
2.023927352
2.027546888
1.986934467
2.016626932
2.037730667
2.048282534
2.097054248
2.105458933
2.093557408
2.145948657
2.175088989
2.211100305
2.243185344
2.279626096
2.289196394
2.318704815
2.362384639
2.397537081
2.438456242
2.475755867
2.50581642
2.522564442
2.570477283
2.582256112
2.605875118
2.617469902
2.614218455
2.62992356
2.657714235
2.68863366
2.703173152
2.728755296
2.704584158
2.734460667
2.758693153
2.769674457
2.785011474
2.793477507
2.749306899
2.656241881
2.505448332
2.314962583
2.081165098
1.851600631
1.600809732
1.358300822
1.154441194
0.970519689
0.839173477
0.742672967
0.680895463
0.64512954
0.629547131
0.629792523
0.655251971
0.672674822
0.683288038
0.71972879
0.766537365
0.804634515
0.830032615
0.86794572
0.889969676
0.930582097
0.949354605
0.974998098
0.962115003
0.949415953
0.937207688
0.921563931
0.905920174
0.883282737
0.859602383
0.830707443
0.8098491
0.810707973
0.799542625
0.796168481
0.802180592
0.811260106
0.851320394
0.885184527
0.909232969
0.927453345
0.948434384
0.974568661
1.023033634
1.045793767
1.072112088
1.102356685
1.121804022
1.157140509
1.185667361
1.219408798
1.233641549
1.247690257
1.265849284
1.302964865
1.31486639
1.331982501
1.346767385
1.360141264
1.399649419
1.410078591
1.417808447
1.435047254
1.457439298
1.48026078
1.500014857
1.514615697
1.530995631
1.528603057
1.494248139
1.454985376
1.307197882
1.116773481
0.892607643
0.651755131
0.352499259
0.121585134
-0.11730424
-0.302023271
-0.453368953
-0.599438701
-0.65722858
-0.7121351
-0.725324935
-0.718208559
-0.69722752
-0.665326525
-0.638087983
-0.601892623
-0.550973728
-0.519870258
-0.457233881
-0.432142521
-0.387174388
-0.356500354
-0.32331105
-0.302882144
-0.30140979
-0.293311845
-0.297360818
-0.312943227
-0.32711463
-0.356193614
-0.385149902
-0.395640421
-0.409934521
-0.431038256
-0.417173593
-0.432940046
-0.436436886
-0.411468223
-0.386070123
-0.369506145
-0.345641746
-0.297483514
-0.273496419
-0.234417701
-0.186443512
-0.161781589
-0.113684704
-0.075710251
-0.03859467
0.015207585
0.061770768
0.099683874
0.126554327
0.156492184
0.187472958
0.21630655
0.249986639
0.272378683
0.288881313
0.3131138
0.330597999
0.362683038
0.382743856
0.405933426
0.43562589
0.463416565
0.514396809
0.528016079
0.536482113
0.556174842
0.576849141
0.60672565
0.628565562
0.657521849
0.69083385
0.728624259
0.752488658
0.752181917
0.705680082
0.611756191
0.464643526
0.251274948
0.036740757
-0.226319756
-0.477356047
-0.703669067
-0.893357291
-1.043230619
-1.173165826
-1.25365449
-1.293101297
-1.300524413
-1.273224524
-1.248930689
-1.213778246
-1.160405428
-1.101204543
-1.053475747
-0.995624519
-0.943417314
-0.882191943
-0.822807014
-0.779863367
-0.773851256
-0.716674857
-0.684773862
-0.672565597
-0.656615099
-0.672442901
-0.665571917
-0.672320205
-0.693792028
-0.70452794
-0.710785443
-0.716613509
-0.718331255
-0.732870747
-0.729619299
-0.71342341
-0.686062172
-0.642689088
-0.610542701
-0.577108004
-0.532569307
-0.497846301
-0.463307339
-0.419136731
-0.368647272
-0.331040906
-0.291164663
-0.23570601
-0.204786584
-0.16619865
-0.149021191
-0.103930361
-0.075648902
-0.046017786
-0.010803995
0.006250767
0.025820801
0.056433486
0.083487984
0.117168073
0.130848692
0.140725731
0.163117775
0.179927146
0.210294439
0.242256782
0.276120915
0.292378153
0.291887369
0.327653292
0.322500054
0.273298904
0.180601975
0.043857133
-0.14810097
-0.372266808
-0.601892623
-0.826181157
-1.025132939
-1.177828279
-1.311812458
-1.409785321
-1.468372725
-1.506224483
-1.504568085
-1.495488571
-1.449538869
-1.401932769
-1.350707132
-1.300401717
-1.246108678
-1.183717693
-1.127032079
-1.075867791
-1.01114558
-0.95844759
-0.907896783
-0.867897843
-0.843358616
-0.81943287
-0.818328605
-0.81593603
-0.813482107
-0.829064517
-0.832315964
-0.848818594
-0.852315434
-0.854278572
-0.86164034
-0.849432075
-0.825260936
-0.807163257
-0.764771742
-0.736060847
-0.701644581
-0.652320735
-0.613057972
-0.576739916
-0.53312144
-0.475086168
-0.436252842
-0.38870809
-0.340672553
-0.285336596
-0.238589369
-0.197976949
-0.171719976
-0.092396925
-0.098224991
-0.058655488
-0.015711841
0.017968248
0.054347652
0.083426636
0.10710699
0.144774703
0.169497974
0.204159632
0.244097224
0.26391265
0.314218065
0.3353218
0.35121095
0.381148806
0.354401049
0.300230706
0.207042992
0.028336072
-0.164542252
-0.389996399
-0.617475033
-0.848573202
-1.036359636
-1.187459925
-1.307150005
-1.379418028
-1.403650515
-1.433281631
-1.423772681
-1.402239509
-1.363528879
-1.33236406
-1.277334844
-1.2152506
-1.159178466
-1.095499173
-1.046420719
-0.985992873
-0.939981822
-0.881271722
-0.841088738
-0.794648251
-0.781826505
-0.766489488
-0.758759631
-0.741704869
-0.785752781
-0.766550836
-0.771090593
-0.76323804
-0.765201178
-0.761827035
-0.725324935
-0.722441576
-0.710908139
-0.670357067
-0.64293448
-0.609561132
-0.565881308
-0.528643031
-0.478889749
-0.409505084
-0.377726786
-0.33950694
-0.276747867
-0.228896374
-0.188038562
-0.155340042
-0.101169698
-0.049882714
-0.017061498
0.022323961
0.065819741
0.104407675
0.125756802
0.155940051
0.213852627
0.261274683
0.276857092
0.29691791
0.314524805
0.349002419
0.393909204
0.419368652
0.447159327
0.472925515
0.50292472
0.536175372
0.545254886
0.592615594
0.598014224
0.585253826
0.517096123
0.394399989
0.232318395
0.031771563
-0.174848727
-0.391714145
-0.591892888
-0.767961842
-0.908817004
-1.018998133
-1.090959416
-1.137645295
-1.136663726
-1.124639505
-1.097032874
-1.062862001
-1.023047105
-0.946239325
-0.898571877
-0.831641135
-0.802010019
-0.723545841
-0.643977398
-0.583978988
-0.522814965
-0.480484798
-0.479319185
-0.443123825
-0.444350787
-0.440056422
-0.4455164
-0.441774168
-0.421345261
-0.440240466
-0.44931998
-0.456006919
-0.444841571
-0.442080908
-0.434535096
-0.382389239
-0.364414255
-0.333372133
-0.289446917
-0.243803955
-0.216933501
-0.164664948
-0.123316351
-0.064974339
-0.003135487
0.051648337
0.075942172
0.128885554
0.170479543
0.212564318
0.264403434
0.303788894
0.327407899
0.369001889
0.403356807
0.438325205
0.461576123
0.497955526
0.512188278
0.556297538
0.579180368
0.645313584
0.656969717
0.666417319
0.685496568
0.720649011
0.749175862
0.780954161
0.785187177
0.744758801
0.672184038
0.543966577
0.380351282
0.189804185
-0.025098095
-0.230798165
-0.425578278
-0.609867872
-0.746490018
-0.842193003
-0.919184827
-0.957404673
-0.946116629
-0.9454418
-0.910473402
-0.889615059
-0.848450506
-0.811028185
-0.780783588
-0.73152109
-0.661584293
-0.599316005
-0.570421065
-0.493674633
-0.479012445
-0.43790924
-0.401223095
-0.381039581
-0.385027206
-0.382511935
-0.436498234
-0.458828931
-0.45852219
-0.468705969
-0.484411075
-0.497355517
-0.519992954
-0.49122071
-0.477110655
-0.440915295
-0.410670698
-0.390241791
-0.374536686
-0.343678608
-0.314599624
-0.269692839
-0.219632816
-0.173989854
-0.135033832
-0.079759223
-0.049453278
-0.000374824
0.035145707
0.069500625
0.095880294
0.135020361
0.162381599
0.184589599
0.212871058
0.230784694
0.250293379
0.248268893
0.296304429
0.336242021
0.354155657
0.40231389
0.418877868
0.442987658
0.46863115
0.487833095
0.469796764
0.4004121
0.322990839
0.159068803
-0.023012261
-0.229387159
-0.44711145
-0.668087188
-0.872498948
-1.030715614
-1.159975991
-1.261200302
-1.336965165
-1.367639199
-1.383467
-1.373774006
-1.360706867
-1.319849055
-1.298070491
-1.268439374
-1.207214003
-1.166724279
-1.123657936
-1.069794332
-1.023353846
-0.976422574
-0.953171657
-0.920534485
-0.914951811
-0.906424429
-0.888694838
-0.883971037
-0.918387302
-0.931454441
-0.936055546
-0.938938905
-0.931638485
-0.941454176
-0.93274275
-0.934951281
-0.930104783
-0.923356496
-0.889860451
-0.848818594
-0.833113489
-0.780047411
-0.746612714
-0.710846791
-0.676798614
-0.637290458
-0.592629065
-0.556372358
-0.509072998
-0.459933196
-0.410548002
-0.376745217
-0.336868973
-0.294232066
-0.271410585
-0.24300643
-0.206074893
-0.182578584
-0.139082804
-0.123868483
-0.085035157
-0.056385609
-0.034975134
-0.010251863
0.022201265
0.040237597
0.045390834
0.046004315
0.012324226
-0.064790295
-0.196565943
-0.354966653
-0.557599319
-0.764096913
-0.976177182
-1.161202953
-1.331566535
-1.482728173
-1.57266444
-1.638000131
-1.661680485
-1.672477745
-1.664747889
-1.640392706
-1.623706032
-1.586345059
-1.546162075
-1.496776881
-1.456103112
-1.394571001
-1.336474381
-1.265862755
-1.219790357
-1.172368301
-1.133289582
-1.103965206
-1.078321714
-1.077585537
-1.074518134
-1.057586067
-1.069610288
-1.06543862
-1.079732719
-1.064088962
-1.085376742
-1.074579482
-1.050285647
-1.033721669
-1.017096343
-0.986299613
-0.943110574
-0.902620849
-0.859615854
-0.816304119
-0.77912719
-0.729005819
-0.68612352
-0.646185928
-0.576310479
-0.531342346
-0.472264157
-0.420609085
-0.379137791
-0.349506675
-0.310857392
-0.259079624
-0.227239977
-0.197363468
-0.162272373
-0.121782649
-0.098286339
-0.031969079
-0.020435642
0.014348712
0.046433751
0.074776558
0.111953487
0.162381599
0.134468228
0.100358703
0.016127806
-0.101537787
-0.292084884
-0.474104599
-0.688148006
-0.894829645
-1.074150045
-1.235618158
-1.351688702
-1.442913278
-1.499537544
-1.5183714
-1.5215615
-1.505733698
-1.515549389
-1.452115488
-1.394816393
-1.347701077
-1.277028104
-1.227397517
-1.170773251
-1.104946775
-1.033660321
-0.974827524
-0.93403106
-0.898081092
-0.871701423
-0.86323539
-0.849861511
-0.840966042
-0.836978417
-0.841763566
-0.824402063
-0.815813334
-0.82642655
-0.836119544
-0.828880472
-0.814893113
-0.807408649
-0.790721974
-0.759986593
-0.717901819
-0.679866017
-0.641339431
-0.601524535
-0.566862877
-0.526434501
-0.466436091
-0.426866588
-0.371898719
-0.329139116
-0.288404
-0.245276308
-0.212455092
-0.173683114
-0.125402185
-0.096077809
-0.07159993
-0.03160099
0.004287629
0.043734436
0.07219994
0.085328426
0.1052052
0.137106195
0.18201298
0.206552207
0.223177533
0.221582483
0.190969798
0.108517995
-0.00939299
-0.173683114
-0.367849747
-0.581647761
-0.795384428
-0.992373072
-1.159791947
-1.289543109
-1.396472791
-1.478556505
-1.484998052
-1.498617323
-1.491194207
-1.473157875
-1.443588106
-1.40475478
-1.312794027
-1.266537584
-1.210710843
-1.153105008
-1.092125029
-1.024274067
-0.954459966
-0.899676142
-0.873051081
-0.840781997
-0.802378107
-0.811028185
-0.78642761
-0.797592958
-0.812991323
-0.811212229
-0.81182571
-0.822868362
-0.854278572
-0.836303588
-0.815567942
-0.783666947
-0.783053466
-0.743177222
-0.72422067
-0.683730945
-0.664283608
-0.605512159
-0.54582049
-0.495576423
-0.469442146
-0.40521072
-0.358034056
-0.298649127
-0.250245502
-0.19601381
-0.165891909
-0.126015666
-0.084544372
-0.042582294
-0.0074912
0.016925331
0.073120161
0.098763653
0.128946902
0.158884759
0.191705975
0.229741776
0.264710175
0.284402904
0.309126175
0.332009005
0.320046131
0.257716495
0.150664118
-0.001601785
-0.191842142
-0.425026146
-0.62072648
-0.832377312
-1.023231149
-1.179668721
-1.297395662
-1.370277166
-1.398865365
-1.429355355
-1.427760305
-1.389356415
-1.357210028
-1.314327729
-1.260832214
-1.210588147
-1.156601848
-1.103413073
-1.028200343
-0.972803038
-0.932558706
-0.885075302
-0.810721444
-0.789310969
-0.779802019
-0.765446571
-0.757103234
-0.754219874
-0.751397863
-0.748698548
-0.758023455
-0.757103234
-0.751459211
-0.73372962
-0.706797818
-0.701828625
-0.687841266
-0.669743586
-0.64612458
-0.619438171
-0.592445021
-0.542507694
-0.478767052
-0.4455164
-0.399014565
-0.352635426
-0.280428751
-0.242515645
-0.202884794
-0.136383489
-0.086998295
-0.04810362
0.004164933
0.025145972
0.058335276
0.092260758
0.140725731
0.171706505
0.206122771
0.238637246
0.253238086
0.279311015
0.293850507
0.327837336
0.369369977
0.420656962
0.458447371
0.478446841
0.496912609
0.536972897
0.510715924
0.554702489
0.592676942
0.594762777
0.565254356
0.483600079
0.350658817
0.154897134
-0.055281344
-0.284784464
-0.510606699
-0.703914459
-0.860290683
-1.008753006
-1.112860676
-1.188012058
-1.200220323
-1.200895152
-1.19715292
-1.155927019
-1.089303018
-1.039058951
-0.968017889
-0.906301733
-0.853297003
-0.789433665
-0.724650106
-0.655756226
-0.578457662
-0.545943186
-0.513796799
-0.493858677
-0.475576953
-0.46711092
-0.483552202
-0.480239406
-0.479073793
-0.485883428
-0.486619605
-0.490300489
-0.475638301
-0.478398964
-0.458644886
-0.439136201
-0.390241791
-0.372757592
-0.355457437
-0.315581194
-0.278465613
-0.224847402
-0.160984064
-0.10840877
-0.063072549
-0.014730272
-0.003442227
0.067966923
0.112751012
0.162933731
0.20741108
0.26391265
0.326180938
0.348757027
0.375443436
0.408326
0.437282288
0.46102399
0.497648786
0.531206179
0.561082688
0.57273882
0.611449451
0.635252501
0.652307264
0.677705364
0.699177187
0.730035265
0.782855951
0.806843045
0.811566846
0.864510228
0.907208483
0.942974406
0.972237434
0.993157125
0.961685567
0.937637125
0.828744305
0.689300148
0.495010819
0.288329181
0.024532491
-0.181167578
-0.37410725
-0.525023495
-0.643179873
-0.745385753
-0.786979742
-0.81243919
-0.803727765
-0.789310969
-0.749312029
-0.705509509
-0.681092978
-0.607107209
-0.535698059
-0.459933196
-0.388401349
-0.322084089
-0.291962188
-0.222148087
-0.181965103
-0.156260263
-0.126015666
-0.120923776
-0.156382959
-0.14429739
-0.145278959
-0.152702075
-0.172517501
-0.195338982
-0.206933766
-0.202455357
-0.192639667
-0.181597015
-0.161658893
-0.14619918
-0.144358738
-0.102764748
-0.07669182
-0.039453543
-0.007429852
0.047292624
0.062506945
0.111033266
0.169191234
0.219312605
0.271029026
0.314647501
0.352499259
0.401761757
0.442864962
0.474091128
0.50261798
0.538261207
0.568444456
0.594210644
0.609977097
0.62703186
0.655006579
0.677889408
0.689974977
0.718501828
0.758684812
0.780463376
0.810094493
0.838682692
0.835922029
0.898313013
0.912300373
0.903282207
0.8606453
0.766782757
0.582370467
0.392559547
0.177289179
-0.045097565
-0.271226541
-0.473368423
-0.655694878
-0.790292538
-0.901761976
-0.971023944
-0.982066596
-0.989857801
-0.981207723
-0.939920474
-0.898081092
-0.844769622
-0.794402859
-0.73152109
-0.675448956
-0.605450811
-0.554900004
-0.496189904
-0.442878433
-0.394842896
-0.356623051
-0.325458232
-0.290367138
-0.289876353
-0.297851602
-0.312759182
-0.333310785
-0.340059072
-0.350733636
-0.361346852
-0.378892399
-0.378340266
-0.390977968
-0.357788664
-0.330182034
-0.308648862
-0.274048552
-0.247423491
-0.191474053
-0.152088594
-0.097856903
-0.055649433
-0.01509836
0.031894259
0.086739432
0.142566173
0.17060224
0.210294439
0.267348142
0.29691791
0.346057712
0.390351016
0.417712254
0.459735681
0.514887593
0.529243041
0.548015549
0.570959727
0.600468147
0.6305287
0.639976302
0.657399153
0.684637695
0.701876502
0.722734845
0.751629785
0.779665851
0.801383067
0.824572637
0.848805123
0.863221919
0.814879642
0.699115839
0.52703451
0.315567723
0.077353177
-0.155769478
-0.406744421
-0.62833364
-0.816120074
-0.975072917
-1.081634509
-1.165865406
-1.192367771
-1.204821429
-1.197643705
-1.181386467
-1.168503373
-1.10543756
-1.04415084
-0.978078972
-0.912865976
-0.8502296
-0.780415499
-0.724036625
-0.657596669
-0.613855497
-0.579807319
-0.555820225
-0.529072468
-0.538274678
-0.535882103
-0.518459252
-0.553304954
-0.576985308
-0.598395784
-0.59882522
-0.616554812
-0.61121753
-0.60772069
-0.59373333
-0.576310479
-0.552691473
-0.518704644
-0.492386323
-0.442448997
-0.39220493
-0.330550122
-0.267852397
-0.223375048
-0.185400595
-0.136935622
-0.091722096
-0.030987509
0.018459033
0.055390569
0.083733376
0.139928206
0.18520308
0.210601179
0.238637246
0.271826551
0.293666462
0.332438441
0.387283613
0.374277823
0.395995039
0.412988453
0.437404984
0.471391813
0.488937361
0.531022135
0.548383638
0.585805959
0.598689053
0.631203529
0.659484988
0.651693783
0.591081893
0.484458952
0.331088784
0.116554592
-0.118408505
-0.358708885
-0.599990833
-0.81243919
-0.985992873
-1.112922024
-1.205005473
-1.258500987
-1.286107618
-1.282794822
-1.267396457
-1.236354335
-1.182490732
-1.119486267
-1.028445735
-0.987956011
-0.917098993
-0.851027125
-0.780967632
-0.708147476
-0.654467917
-0.618579298
-0.588212004
-0.563672778
-0.536863672
-0.545391053
-0.54201691
-0.554286523
-0.564102214
-0.571402634
-0.588396049
-0.596984778
-0.596248601
-0.607107209
-0.59121806
-0.570298369
-0.553182258
-0.517784423
-0.476129086
-0.435393969
-0.376131736
-0.31981421
-0.274723381
-0.218405855
-0.171965368
-0.119880859
-0.062213676
-0.015650493
0.016557243
0.078028006
0.117781554
0.146001665
0.187350262
0.229680428
0.263237821
0.276979788
0.323297579
0.359492939
0.386608784
0.41752821
0.443171702
0.474275173
0.516421295
0.544211969
0.571757251
0.587891793
0.608811484
0.643657186
0.663472612
0.662306999
0.60703239
0.490839151
0.324463192
0.11219888
-0.130371378
-0.377481393
-0.610849441
-0.835383367
-1.017403083
-1.18764397
-1.274942269
-1.326904082
-1.36095226
-1.358559685
-1.320278491
-1.282794822
-1.216968346
-1.164699793
-1.086542355
-1.018875437
-0.94574854
-0.855689578
-0.787347831
-0.71912878
-0.663915519
-0.625450281
-0.591034016
-0.556740446
-0.542937131
-0.548335761
-0.560175938
-0.572445551
-0.598886568
-0.609193043
-0.630235431
-0.644713574
-0.641768867
-0.632689353
-0.627106679
-0.606186988
-0.560605374
-0.52201744
-0.489073528
-0.434351052
-0.396928731
-0.346255227
-0.283066718
-0.21349801
-0.175523556
-0.120985124
-0.057857963
-0.005037277
0.031342127
0.077966658
0.118333686
0.166246527
0.201583014
0.253238086
0.275875523
0.308328651
0.335996629
0.361087988
0.383050596
0.433969492
0.443294399
0.46071725
0.491698024
0.528384168
0.56102134
0.589118754
0.591204589
0.554273052
0.473477648
0.314831546
0.097413995
-0.138039887
-0.415885283
-0.666921575
-0.882621379
-1.059733249
-1.218624744
-1.34125953
-1.404632084
-1.426533344
-1.427637609
-1.400705807
-1.335676856
-1.271997562
-1.19745966
-1.136786422
-1.072125559
-1.005685602
-0.94893864
-0.860229335
-0.782255941
-0.713055321
-0.679681973
-0.637658547
-0.609806524
-0.563059297
-0.555697529
-0.561280203
-0.576126435
-0.578212269
-0.581095629
-0.627168027
-0.650848381
-0.64391605
-0.634407099
-0.631278348
-0.616370767
-0.618272557
-0.581647761
-0.533918965
-0.491159362
-0.433798919
-0.381223625
-0.360487979
-0.291041967
-0.234417701
-0.167916396
-0.11889929
-0.079452483
-0.019760813
0.030974038
0.079132271
0.112996404
0.149130416
0.203668848
0.250354727
0.267041401
0.303543501
0.330352607
0.357345756
0.376977138
0.421515835
0.436546111
0.464704874
0.490409714
0.516789383
0.554702489
0.5908365
0.609118224
0.633841495
0.64322775
0.656847021
0.615989208
0.542862312
0.403479503
0.18550982
-0.07479003
-0.340181768
-0.589868402
-0.842131655
-1.029979437
-1.179852765
-1.289175021
-1.361811133
-1.391135509
-1.392485166
-1.355001497
-1.316474911
-1.247090247
-1.167583152
-1.088689537
-1.028261691
-0.94574854
-0.870658506
-0.787777267
-0.730048736
-0.661829685
-0.610542701
-0.567660402
-0.533612225
-0.514103539
-0.501772578
-0.507661992
-0.510054567
-0.533857617
-0.547354192
-0.5661267
-0.565758612
-0.570850501
-0.581463717
-0.553366302
-0.554041131
-0.528888423
-0.504901329
-0.46042398
-0.444534831
-0.38330946
-0.318771293
-0.282637281
-0.22681054
-0.170063578
-0.093317146
-0.042275554
0.006128071
0.044163873
0.090358968
0.139621466
0.20422098
0.24421992
0.285568518
0.329800474
0.359861027
0.399369182
0.445932365
0.449858642
0.487771747
0.515501074
0.54513219
0.562984478
0.602063197
0.626418379
0.673288303
0.709176922
0.738010514
0.757457851
0.779849896
0.815186382
0.82383646
0.80254868
0.711998933
0.572309384
0.373296254
0.125388714
-0.131414296
-0.373677813
-0.618579298
-0.800967102
-0.946300673
-1.050899128
-1.109363836
-1.145191107
-1.14193966
-1.120222444
-1.098198488
-1.013231414
-0.933969712
-0.854401268
-0.773973952
-0.692871807
-0.641155386
-0.556188313
-0.479687273
-0.406621725
-0.341531426
-0.336071448
-0.313924796
-0.301348442
-0.28490716
-0.271594629
-0.29061253
-0.309262343
-0.344353437
-0.368095139
-0.367297614
-0.364598299
-0.366622785
-0.372144112
-0.374168598
-0.344292089
-0.298894519
-0.243681259
-0.209633081
-0.192823711
-0.160861368
-0.096077809
-0.037735797
0.024593839
0.069991409
0.11440741
0.162995079
0.222564053
0.266611965
0.304402374
0.331272828
0.366363922
0.40102558
0.45531862
0.478998974
0.51912061
0.554457096
0.567524235
0.582002379
0.605253296
0.619302004
0.640405739
0.677644015
0.696293828
0.742059486
0.765617144
0.78224247
0.799113189
0.787763796
0.72702921
0.607768567
0.426546376
0.20170571
-0.047980924
-0.307728641
-0.552507429
-0.754649311
-0.944214839
-1.077462841
-1.18384039
-1.22985144
-1.232121318
-1.205005473
-1.154577361
-1.091388852
-1.043476012
-0.959061071
-0.87433939
-0.792255676
-0.718576647
-0.62833364
-0.556556402
-0.459319715
-0.406253637
-0.358463493
-0.324783404
-0.314047492
-0.289446917
-0.297667558
-0.304722586
-0.324169923
-0.345887139
-0.370180973
-0.375334211
-0.384168333
-0.389198874
-0.384536421
-0.351960597
-0.339629636
-0.32012095
-0.299385304
-0.256932441
-0.225276839
-0.173867158
-0.118163113
-0.081967753
-0.028226846
0.008520646
0.065390304
0.147964803
0.19311698
0.23311592
0.27280812
0.320107479
0.377713315
0.404092984
0.437650376
0.464152741
0.496973957
0.527709339
0.545684323
0.576665097
0.598627705
0.657705894
0.665681142
0.675619529
0.688073187
0.719115309
0.76353131
0.791996813
0.812855156
0.834020239
0.848007598
0.835431244
0.770034205
0.632307794
0.427466597
0.187902395
-0.070066228
-0.324047227
-0.581463717
-0.796734085
-0.953110309
-1.075990487
-1.163227439
-1.206539174
-1.202735594
-1.176724014
-1.130344875
-1.065499968
-0.99114611
-0.917405733
-0.839800428
-0.764096913
-0.702380758
-0.641155386
-0.560544026
-0.510790744
-0.4312223
-0.380487449
-0.340917945
-0.325826321
-0.31282053
-0.278649657
-0.295643072
-0.310550652
-0.336991669
-0.365641216
-0.376438476
-0.400916355
-0.411284178
-0.390732576
-0.375334211
-0.365825261
-0.345457702
-0.318893989
-0.269386099
-0.230368728
-0.175216816
-0.147548837
-0.109451688
-0.051661808
0.000790789
0.063427166
0.119437951
0.165019565
0.213423191
0.262256252
0.310475833
0.346487148
0.397467392
0.426607724
0.45752715
0.482373117
0.506973692
0.533292013
0.558076632
0.595560301
0.616664037
0.638258556
0.671386513
0.69623248
0.715618469
0.708808834
0.747458116
0.776475752
0.819051311
0.852056571
0.8749394
0.908128704
0.935489942
0.963832749
0.98604075
0.978556285
0.894570781
0.772549476
0.577094533
0.339248076
0.061586724
-0.222148087
-0.462141726
-0.664038216
-0.825260936
-0.976729314
-1.047954421
-1.085070001
-1.096971526
-1.062432564
-1.010164011
-0.935135325
-0.864278307
-0.783114814
-0.701828625
-0.624775453
-0.55851954
-0.471773373
-0.398401084
-0.335826056
-0.279140442
-0.223068308
-0.180001965
-0.14049381
-0.130494075
-0.130371378
-0.134113611
-0.138039887
-0.164787644
-0.176443777
-0.197976949
-0.207485899
-0.223988529
-0.229387159
-0.223927181
-0.228344242
-0.196995379
-0.163376639
-0.121966693
-0.070495665
-0.028165498
0.013428491
0.077475873
0.111769443
0.161338681
0.216551942
0.266673313
0.315506374
0.36231495
0.413908674
0.46323252
0.509488963
0.564702224
0.600958931
0.62672512
0.669423374
0.690649806
0.725250116
0.744942845
0.780217984
0.810094493
0.83905078
0.852915444
0.879785897
0.918864616
0.94604181
0.974875401
0.984016263
0.998371711
1.029904618
1.054811933
1.084381701
1.06094674
0.99904654
0.863712704
0.679423109
0.445748321
0.18520308
-0.066753433
-0.301532486
-0.506066942
-0.687779918
-0.802194063
-0.848205114
-0.881455766
-0.878695103
-0.860965511
-0.807224605
-0.747226195
-0.646247276
-0.572077463
-0.497600909
-0.421958742
-0.354659912
-0.275336861
-0.226381104
-0.142334252
-0.091722096
-0.046140482
0.009808955
0.032569088
0.06140268
0.041280514
0.011281309
-0.003503575
-0.031355598
-0.062827156
-0.075955643
-0.105525411
-0.118408505
-0.109574384
-0.103746317
-0.085280549
-0.047674184
-0.018349808
0.011833441
0.048274193
0.101769708
0.157473753
0.20741108
0.248391589
0.29501612
0.335076408
0.393970552
0.429368387
0.466913404
0.516605339
0.56163482
0.605069252
0.639117429
0.675128745
0.716477342
0.735986027
0.760525254
0.791383332
0.822793543
0.845553676
0.86224035
0.885920704
0.911870936
0.938557346
0.958004683
0.980826164
1.000764286
1.023094982
1.055486762
1.057388552
1.003954385
0.890583157
0.688257231
0.461269382
0.208331301
-0.033993565
-0.282821326
-0.504165152
-0.668823365
-0.811764362
-0.897467612
-0.95403053
-0.982741425
-0.966606883
-0.925012894
-0.86673223
-0.799985533
-0.732932095
-0.656983188
-0.593917375
-0.502447406
-0.441222035
-0.381039581
-0.311409525
-0.242883734
-0.207792639
-0.223191004
-0.169143357
-0.126261058
-0.133561478
-0.194173368
-0.190676529
-0.233988264
-0.230430076
-0.247239447
-0.249754717
-0.263128596
-0.260797369
-0.259999845
-0.247975623
-0.229877944
-0.192762363
-0.161597545
-0.120862428
-0.078839002
-0.038226581
0.010361088
0.052997995
0.111524051
0.165387654
0.232993224
0.276120915
0.31722412
0.368695149
0.397774133
0.444889448
0.446300454
0.479980543
0.513599284
0.553782268
0.582125075
0.619670092
0.651571087
0.661570822
0.684392303
0.703287508
0.725250116
0.739544215
0.785984702
0.802855421
0.817517609
0.835431244
0.845062891
0.874141875
0.886840925
0.881687687
0.818683222
0.683594778
0.492311504
0.248452937
-0.032398515
-0.292391624
-0.551096424
-0.761152206
-0.943662706
-1.068690067
-1.15844229
-1.210404103
-1.230035484
-1.21144702
-1.164822489
-1.103106333
-1.039549735
-0.967588452
-0.88513665
-0.828082947
-0.76323804
-0.696061907
-0.623732535
-0.574838126
-0.511097484
-0.459012975
-0.417664377
-0.406314985
-0.406069593
-0.410118565
-0.428645681
-0.436498234
-0.459442411
-0.474472688
-0.53661828
-0.544716225
-0.53692502
-0.536127495
-0.525943716
-0.507171208
-0.497907649
-0.483000069
-0.440485858
-0.398891869
-0.352696774
-0.323372398
-0.291471403
-0.232945347
-0.184419026
-0.12110782
-0.10110835
-0.03669288
0.012078834
0.025084624
0.100420051
0.147903455
0.188147787
0.229680428
0.228698859
0.281580893
0.322377358
0.351272298
0.397283348
0.408141956
0.40262063
0.43942947
0.488814664
0.496053736
0.508200654
0.516973427
0.55623619
0.579241716
0.605989473
0.646417849
0.664331485
0.691385983
0.724575287
0.718624524
0.696293828
0.607155086
0.444950796
0.211276008
-0.035895355
-0.318587249
-0.578212269
-0.814954461
-1.012127149
-1.155190842
-1.247090247
-1.305125518
-1.338376171
-1.333038889
-1.306720568
-1.235434114
-1.162123174
-1.090652675
-1.002679547
-0.944153491
-0.881026329
-0.798267787
-0.740539255
-0.657412624
-0.586003474
-0.519256777
-0.471098544
-0.448645151
-0.457479273
-0.457724665
-0.460055892
-0.481650412
-0.499564047
-0.513796799
-0.572138811
-0.553673043
-0.567537706
-0.571341286
-0.551280468
-0.532323915
-0.519440821
-0.479012445
-0.435393969
-0.40932104
-0.355150697
-0.318280508
-0.273066983
-0.231227601
-0.181535667
-0.14110729
-0.104789234
-0.045342957
-0.013810051
0.04710858
0.092444802
0.13091004
0.161890814
0.207227036
0.227042461
0.267532186
0.295813645
0.324463192
0.348634331
0.367652232
0.370535591
0.391332586
0.423908409
0.442312829
0.469674067
0.485869957
0.49212746
0.502372587
0.533353361
0.554702489
0.536482113
0.484458952
0.373480298
0.209067478
-0.004914581
-0.266441392
-0.507846036
-0.758575587
-0.994826994
-1.171816168
-1.305923043
-1.392178426
-1.429232659
-1.438741609
-1.42917131
-1.428005697
-1.345553895
-1.267580501
-1.179116588
-1.098382532
-1.040592652
-0.963355436
-0.87973802
-0.808512914
-0.747716979
-0.687657221
-0.614530325
-0.584285728
-0.568396579
-0.56581996
-0.566924225
-0.578641706
-0.61183101
-0.626370502
-0.651277818
-0.670479763
-0.685448691
-0.685510039
-0.67912984
-0.682013199
-0.654345221
-0.640909994
-0.616309419
-0.581586413
-0.533060092
-0.487233086
-0.447479538
-0.39821704
-0.349383979
-0.28871074
-0.24711675
-0.196075158
-0.15509465
-0.111414826
-0.06779635
-0.029883244
0.006189419
0.045329486
0.065635696
0.097843432
0.128456117
0.165571698
0.18771835
0.220294174
0.241581953
0.265139611
0.276673048
0.300537446
0.319984783
0.362683038
0.400228055
0.403540851
0.410841271
0.413970022
0.376977138
0.232379743
0.039440072
-0.197792904
-0.441774168
-0.700663012
-0.952619524
-1.175865141
-1.353713188
-1.485856925
-1.567081766
-1.613644949
-1.622601767
-1.60186612
-1.555977766
-1.510580196
-1.440275311
-1.371136039
-1.295003087
-1.255126844
-1.17684671
-1.095867261
-1.037279857
-0.972680342
-0.905626904
-0.853235655
-0.811580317
-0.800353621
-0.780170107
-0.781826505
-0.787777267
-0.808451566
-0.82133466
-0.832868097
-0.859677202
-0.873480517
-0.882621379
-0.8835416
-0.870045025
-0.852376782
-0.830966307
-0.798513179
-0.76262456
-0.714404979
-0.664713044
-0.633302834
-0.581831805
-0.530483473
-0.45502535
-0.423860532
-0.39091662
-0.366254697
-0.314538276
-0.292575668
-0.23380422
-0.182946672
-0.151291069
-0.112151002
-0.082519886
-0.053318206
-0.038717366
-0.013380614
0.004103585
0.026250237
0.057783144
0.079684404
0.096371078
0.104469023
0.129376338
0.146124361
0.186245997
0.20201245
0.210969268
0.239434771
0.271949247
0.292930286
0.311457402
0.349309159
0.398326265
0.41722147
0.466238576
0.446791238
0.370351547
0.22961908
0.021526436
-0.241779469
-0.521588003
-0.785936825
-1.040899393
-1.274083396
-1.437698692
-1.54947487
-1.628552529
-1.650637833
-1.662109922
-1.623951424
-1.567633898
-1.49837193
-1.436349034
-1.369479641
-1.30445069
-1.24255049
-1.178871196
-1.091940985
-1.022126884
-0.962496563
-0.89593391
-0.857591368
-0.820414439
-0.796550041
-0.798513179
-0.798574527
-0.821211964
-0.832990793
-0.851579257
-0.896608739
-0.899614794
-0.896608739
-0.8835416
-0.873173777
-0.872008164
-0.860965511
-0.821825445
-0.781213024
-0.744710924
-0.698577177
-0.646001884
-0.590297839
-0.553857087
-0.49661934
-0.419075383
-0.374536686
-0.334169658
-0.290367138
-0.233926916
-0.190737877
-0.141782119
-0.102519356
-0.065710516
-0.024423266
0.012999055
0.04551353
0.068764448
0.100420051
0.149682549
0.167473488
0.176798394
0.211337356
0.224588539
0.245446882
0.270170153
0.284157512
0.301580363
0.316978728
0.339984253
0.358327325
0.392620895
0.438754642
0.466361272
0.505562687
0.543291748
0.575560832
0.615191683
0.629485783
0.675128745
0.687521054
0.639976302
0.528752256
0.366363922
0.119315255
-0.147610185
-0.419320775
-0.678945796
-0.899860186
-1.07273904
-1.19494439
-1.281322468
-1.335063375
-1.329358005
-1.299542844
-1.248317208
-1.172245605
-1.122492322
-1.051021824
-0.967465756
-0.886547656
-0.812868627
-0.720785178
-0.651768602
-0.59851848
-0.520483738
-0.468276533
-0.414351582
-0.379199139
-0.381162277
-0.393677283
-0.423063007
-0.441037991
-0.457417925
-0.469932931
-0.508827605
-0.52201744
-0.52042239
-0.521219915
-0.512447141
-0.491466102
-0.466742831
-0.425885018
-0.390241791
-0.336194144
-0.306931116
-0.265950607
-0.209387689
-0.15760992
-0.102642052
-0.052643377
-0.019331377
0.050728116
0.087905045
0.127290504
0.172688074
0.215140936
0.235140406
0.257961887
0.307469778
0.322254662
0.362069557
0.384645646
0.400289403
0.401761757
0.432374443
0.454827835
0.492066112
0.506237516
0.527402599
0.571143771
0.578321495
0.589302799
0.606418909
0.637338335
0.673656391
0.684514999
0.599302534
0.457649846
0.257103014
0.02361227
-0.225276839
-0.486496909
-0.732257266
-0.928264341
-1.097032874
-1.20445334
-1.289543109
-1.319235574
-1.313591552
-1.308990447
-1.275433054
-1.217949915
-1.144270886
-1.115191902
-1.029120564
-0.957650066
-0.89593391
-0.82673329
-0.75912772
-0.659743851
-0.612689883
-0.559685153
-0.520851827
-0.490239141
-0.474902124
-0.4931225
-0.489687008
-0.508704909
-0.534103009
-0.549194634
-0.561341551
-0.547354192
-0.549746766
-0.564347606
-0.543673308
-0.515453197
-0.487294434
-0.452264687
-0.409443736
-0.34870915
-0.305949547
-0.244969568
-0.192823711
-0.158468793
-0.098470383
-0.062275024
-0.007552548
0.042384779
0.079193619
0.138762593
0.190356317
0.219312605
0.250293379
0.273851037
0.289678838
0.315874463
0.347652762
0.392743591
0.40673095
0.430656697
0.461698819
0.459735681
0.499182488
0.53783177
0.568444456
0.603719594
0.617584258
0.644209319
0.655742755
0.646295153
0.573536345
0.430534001
0.241213865
-0.008840857
-0.253742342
-0.519747561
-0.77023172
-0.990716674
-1.169668986
-1.327640259
-1.400644459
-1.447759775
-1.453158405
-1.446287421
-1.405675001
-1.375491752
-1.296598137
-1.247887772
-1.176601318
-1.115498643
-1.020715879
-1.003722464
-0.939859126
-0.876731965
-0.822316229
-0.781765157
-0.759557156
-0.765691963
-0.747532935
-0.721521355
-0.716797553
-0.729864692
-0.748207764
-0.737962637
-0.746612714
-0.770906549
-0.767839145
-0.769311499
-0.765569267
-0.734220405
-0.704957376
-0.680970282
-0.641707519
-0.600052181
-0.543121175
-0.503428975
-0.454841306
-0.404903979
-0.356439006
-0.311470873
-0.273373723
-0.227608065
-0.169756838
-0.141229986
-0.104850582
-0.086016726
-0.054974604
-0.038410626
0.00459437
0.040789729
0.057292359
0.087598305
0.127597244
0.124775233
0.182197024
0.205877378
0.213975323
0.217594859
0.238269158
0.128456117
-0.000988305
-0.195032241
-0.425578278
-0.691276757
-0.953785137
-1.225741119
-1.412914073
-1.592725258
-1.721004066
-1.806032488
-1.858301041
-1.881245218
-1.866951118
-1.810940333
-1.758180995
-1.703213127
-1.643460109
-1.602602297
-1.518126008
-1.450213698
-1.376411973
-1.320401187
-1.246599462
-1.219913053
-1.160773516
-1.127277471
-1.091879637
-1.092186377
-1.088505493
-1.120467836
-1.093965471
-1.124394112
-1.143166621
-1.170834599
-1.174331439
-1.193165296
-1.182797472
-1.163595527
-1.141816963
-1.104762731
-1.080223504
-1.061021559
-0.998998663
-0.940288562
-0.897897048
-0.844340185
-0.813482107
-0.780783588
-0.712012404
-0.640909994
-0.590052446
-0.536986368
-0.49122071
-0.457111185
-0.413492709
-0.368217835
-0.320366343
-0.28490716
-0.243435866
-0.196934031
-0.162088329
-0.139818981
-0.103316881
-0.06209098
-0.03540457
-0.017061498
-0.016202625
-0.075894295
-0.190676529
-0.375947692
-0.607659342
-0.87022907
-1.129976786
-1.387086536
-1.611129678
-1.778732598
-1.912041948
-2.008603806
-2.03608774
-2.056946083
-2.051854193
-2.010137507
-1.940507451
-1.896398191
-1.828363184
-1.732414807
-1.662416662
-1.604197346
-1.512850074
-1.444201587
-1.381074426
-1.301567331
-1.24414554
-1.202060765
-1.154086577
-1.139792477
-1.144823019
-1.14574324
-1.148933339
-1.159423859
-1.184515218
-1.189975196
-1.177705583
-1.186110268
-1.174331439
-1.155988367
-1.148626599
-1.131878577
-1.083168211
-1.051021824
-1.008691657
-0.950288297
-0.900166926
-0.842193003
-0.784219079
-0.729251211
-0.655081398
-0.598395784
-0.537354457
-0.493858677
-0.43281735
-0.389996399
-0.335948752
-0.303127536
-0.247668883
-0.220982474
-0.178161523
-0.139573589
-0.107856638
-0.085648637
-0.056324261
-0.02019025
0.011035917
0.044838702
0.080543277
0.11219888
0.140357642
0.157535101
0.194098549
0.210171743
0.198883699
0.146431101
0.023980359
-0.165523821
-0.395824465
-0.631401044
-0.907896783
-1.168012588
-1.392791907
-1.55646855
-1.705544354
-1.786707847
-1.818424797
-1.827197571
-1.808915847
-1.766033548
-1.716341613
-1.636957214
-1.595976705
-1.50156203
-1.414386426
-1.339725828
-1.2660468
-1.181570511
-1.105130819
-1.044273536
-0.995747215
-0.962557911
-0.948202463
-0.931209049
-0.944766971
-0.940595303
-0.961453646
-0.971760121
-0.987956011
-1.008753006
-1.014274332
-1.003783812
-0.987097138
-0.975747745
-0.933294883
-0.908755656
-0.871333335
-0.838696163
-0.793543986
-0.734588493
-0.68643026
-0.63311879
-0.561034811
-0.499686743
-0.419566168
-0.386008775
-0.325826321
-0.273496419
-0.234356352
-0.187363733
-0.145094915
-0.092765013
-0.061048062
-0.021785299
0.015637022
0.052445862
0.087721001
0.136922151
0.155756007
0.193730461
0.203730196
0.241888694
0.266796009
0.307285733
0.320843656
0.36802032
0.410963967
0.429307039
0.451392343
0.445748321
0.398939746
0.277409225
0.103978239
-0.122886914
-0.377420045
-0.641584823
-0.888204053
-1.113780897
-1.287273231
-1.426594692
-1.511623113
-1.55235823
-1.554444064
-1.534015157
-1.483341654
-1.425490426
-1.366105497
-1.3025489
-1.236231639
-1.156479152
-1.081818554
-1.004949425
-0.895320429
-0.824340715
-0.777593488
-0.723791233
-0.689190923
-0.654467917
-0.640603254
-0.64391605
-0.648823895
-0.665878658
-0.663240691
-0.680356801
-0.690111144
-0.680540846
-0.681583763
-0.670111674
-0.656860492
-0.634100359
-0.595757817
-0.556188313
-0.528458987
-0.472018765
-0.421529306
-0.360487979
-0.302698099
-0.250552242
-0.173376374
-0.116813456
-0.055158648
-0.013073874
0.049071718
0.09600299
0.122198614
0.18201298
0.234465578
0.274955302
0.324033756
0.369860762
0.404031635
0.436423415
0.469858112
0.509795703
0.538997383
0.579609804
0.591327285
0.63022196
0.67114112
0.694882822
0.745679022
0.759543685
0.795923089
0.836903598
0.865123709
0.909785102
0.950336174
0.990580507
1.024935424
1.062357745
1.047388817
0.986531534
0.864019444
0.675067397
0.43593263
0.162933731
-0.109083599
-0.367236266
-0.579930015
-0.774894173
-0.944766971
-1.022004188
-1.055070796
-1.062923349
-1.046727459
-1.009673227
-0.94893864
-0.866854926
-0.793973422
-0.720969222
-0.654713309
-0.566249396
-0.4820185
-0.42140661
-0.352390034
-0.292452972
-0.244478784
-0.199449302
-0.172333456
-0.162885854
-0.163560683
-0.165217081
-0.183253412
-0.190983269
-0.200124131
-0.204725236
-0.199817391
-0.20079896
-0.173867158
-0.166628086
-0.146996705
-0.119880859
-0.101783179
-0.056324261
-0.000681564
0.043734436
0.110358438
0.164160692
0.201214925
0.271642506
0.322377358
0.375934221
0.427037161
0.478324145
0.498262267
0.554886533
0.618443131
0.672797518
0.707581872
0.752488658
0.794082647
0.842731665
0.881258251
0.919600793
0.926226384
0.951624484
0.996224529
1.033769546
1.067510983
1.101191072
1.13266263
1.151373791
1.189900377
1.2288564
1.248671826
1.29425344
1.34977344
1.380631518
1.428728403
1.469095431
1.499401377
1.530014062
1.589951124
1.618662019
1.651605931
1.67547033
