0.559402409
0.573901969
0.608658266
0.647785753
0.680303148
0.725454349
0.77348414
0.822153617
0.860854647
0.877166651
0.926529122
0.98586004
1.020669644
1.062515799
1.106867392
1.113797329
1.171529031
1.199515313
1.226861908
1.2512233
1.275957843
1.260285525
1.293709142
1.334702381
1.354639276
1.375002628
1.393340306
1.437531978
1.452564609
1.463385971
1.479591361
1.494943836
1.535297389
1.539348737
1.573358733
1.596707288
1.618936392
1.62202821
1.589830659
1.501553929
1.378094445
1.205165876
0.987779099
0.761969784
0.518888934
0.275275013
0.105864719
-0.018127837
-0.110669142
-0.18487277
-0.217336857
-0.241378406
-0.216004177
-0.18316694
-0.132951554
-0.0800175
-0.028042977
0.002395437
0.054529882
0.105918027
0.154747425
0.206242184
0.258589858
0.277780452
0.345640522
0.358967323
0.377571537
0.376612008
0.35998016
0.376025628
0.367123325
0.33748452
0.316214946
0.310191232
0.296917738
0.291853553
0.297557424
0.296811123
0.311897062
0.361792605
0.408489715
0.399853948
0.428053459
0.468886777
0.523633276
0.558602801
0.620918923
0.636058168
0.691870811
0.730678455
0.782706286
0.835107267
0.867784583
0.88958723
0.931380078
0.974292377
0.965443381
1.006596542
1.056918542
1.101163522
1.12349924
1.154683954
1.169716586
1.193704827
1.20852423
1.251596451
1.26343065
1.266469161
1.298986555
1.311407133
1.334702381
1.377454759
1.393873378
1.422979111
1.44872649
1.463919044
1.493024777
1.489932959
1.548837419
1.575117871
1.600811943
1.620962066
1.579009297
1.518878771
1.402349223
1.222170874
0.996681402
0.750135585
0.51286522
0.262054827
0.042642376
-0.111468751
-0.243990459
-0.321125983
-0.367609865
-0.396928827
-0.3797106
-0.345114225
-0.309718241
-0.26760555
-0.218722845
-0.174744401
-0.131139109
-0.069302752
-0.024578008
0.017161532
0.047493331
0.08374223
0.124362319
0.14397937
0.150376235
0.149096862
0.151282457
0.142859919
0.13139887
0.105438262
0.099521162
0.08182317
0.084062073
0.077078829
0.090245709
0.091045317
0.116792696
0.124468934
0.149843163
0.186092061
0.247128809
0.276234543
0.322718424
0.352996916
0.397455124
0.431784963
0.487277763
0.533868259
0.570223772
0.613402607
0.667136268
0.698161061
0.731104913
0.767353811
0.807174293
0.840704524
0.87642035
0.897689925
0.917573512
0.953502567
0.981595463
0.997960775
1.021415945
1.055159405
1.060490125
1.088849558
1.084051909
1.098818005
1.140717467
1.171315802
1.191199389
1.225529228
1.24685211
1.262151277
1.288804879
1.322921489
1.350534621
1.37953374
1.423512183
1.456989107
1.496116595
1.531405964
1.561844377
1.588551286
1.622134824
1.641911797
1.634981861
1.577090237
1.488546972
1.298240254
1.075949214
0.8198081
0.553432003
0.297930575
0.068549677
-0.12559516
-0.267765472
-0.358067875
-0.417878558
-0.42869992
-0.426567632
-0.399167729
-0.363718439
-0.306999574
-0.251400161
-0.205769194
-0.155233965
-0.113014659
-0.07106189
-0.021326269
0.006979856
0.057834929
0.097335567
0.138222192
0.156933021
0.155920184
0.156933021
0.150376235
0.129693039
0.10986276
0.090938702
0.093124298
0.073187403
0.076065992
0.088379957
0.084488531
0.100214156
0.114713715
0.132784857
0.164076186
0.224793091
0.250647085
0.294358992
0.335778689
0.367816319
0.405664434
0.45092225
0.507214657
0.54261064
0.594318628
0.625290113
0.648478747
0.687393006
0.733397123
0.764741758
0.801790265
1.175313842
1.199302084
1.226701987
1.254101889
1.310074453
1.332516786
1.361569212
1.3881162
1.418074848
1.448140111
1.445261522
1.488227128
1.51050954
1.505445355
1.455763041
1.346589888
1.192212226
0.970774101
0.730998298
0.466914411
0.214931258
0.000529685
-0.176077082
-0.308971941
-0.395969297
-0.444159009
-0.440694041
-0.424008886
-0.409775863
-0.37112814
-0.306199966
-0.252412997
-0.176716768
-0.128793592
-0.078524899
-0.028576049
0.024517926
0.059274223
0.097868639
0.139341643
0.152881673
0.173191718
0.183106858
0.182946936
0.178469131
0.160344682
0.145471972
0.121643652
0.089712637
0.0886998
0.101600143
0.089499408
0.115300094
0.132678243
0.162103819
0.198832483
0.226339
0.25912293
0.265093337
0.319893143
0.369362228
0.431998192
0.471978595
0.520807994
0.572995746
0.602634552
0.649811427
0.679023775
0.71362015
0.74469825
0.77577635
0.809253274
0.843316577
0.872742153
0.909577431
0.936924027
0.966136374
0.998866998
1.035702275
1.043751663
1.101430058
1.116889147
1.134693753
1.151378908
1.175260535
1.19365152
1.214228101
1.250796843
1.267908455
1.290990474
1.328092288
1.354319432
1.386516984
1.42090013
1.460613997
1.483269558
1.50955001
1.542493862
1.572719046
1.59590768
1.576557165
1.524316105
1.386836827
1.206711785
0.987939021
0.756692371
0.505775362
0.259069623
0.069402592
-0.090252483
-0.201184775
-0.264780269
-0.295591832
-0.293459544
-0.272030048
-0.242337936
-0.204649743
-0.148197414
-0.091158706
-0.053097362
0.003301659
0.04674703
0.093817291
0.130652569
0.178948896
0.214025036
0.247715189
0.278366831
0.302941452
0.312536749
0.314242579
0.300649242
0.291373789
0.288068742
0.277513916
0.259176238
0.264560265
0.267971926
0.264347036
0.279273053
0.309285009
0.337964285
0.350917935
0.401239936
0.441433567
0.48733107
0.53136282
0.580032297
0.594905007
0.639416522
0.703545088
0.742512654
0.775936271
0.825885121
0.887081791
0.916560675
0.945666408
0.973812612
1.00606347
1.030691398
1.088103257
1.098764697
1.137465727
1.176220065
1.199995077
1.233045544
1.264710023
1.290617324
1.313326193
1.343764606
1.371271123
1.39669866
1.424418405
1.449792635
1.48572169
1.516426639
1.560191854
1.600598714
1.615791267
1.650121106
1.684291024
1.725124342
1.759081031
1.798101904
1.825075349
1.871932381
1.915910825
1.957970208
1.999603135
2.021459088
2.061706027
2.095129644
2.1377221
2.130952085
2.106324157
2.066343754
1.912605778
1.738557758
1.506671421
1.273399097
1.045883951
0.823006532
0.630034454
0.473364582
0.358327637
0.283377708
0.263014356
0.251553307
0.240838559
0.275594856
0.31898692
0.374266491
0.421496673
0.460091089
0.504975754
0.549807113
0.584723331
0.622411524
0.66233862
0.694429557
0.718471106
0.740220445
0.761756555
0.770765472
0.787557242
0.775083356
0.768473263
0.764155379
0.753440631
0.73974068
0.735476104
0.743951949
0.74773676
0.766340975
0.791235439
0.815543524
0.842943426
0.892199283
0.941721675
0.975838285
1.009368517
1.046363716
1.096152644
1.135973126
1.16486563
1.215827317
1.268548142
1.324840549
1.362848585
1.39344692
1.438758043
1.476126393
1.524689256
1.550383328
1.584979703
1.61078039
1.616644182
1.657477501
1.672989897
1.700976179
1.737438306
1.756149135
1.821716995
1.844372557
1.858872117
1.881580985
1.911699555
1.936327484
1.99187359
2.011384027
2.033399902
2.076685351
2.128659875
2.141453604
2.187617642
2.204889176
2.216776683
2.249933764
2.287408728
2.310650669
2.379896726
2.407509858
2.428939354
2.454526812
2.487577278
2.522013732
2.555117505
2.547547882
2.506821179
2.429152583
2.28431691
2.109202746
1.898532676
1.665100431
1.445847901
1.234538146
1.090342159
0.939696001
0.854617704
0.781053763
0.755892763
0.744858171
0.768419955
0.801843572
0.820127943
0.886761948
0.946839167
1.011820648
1.049935299
1.098924619
1.100896986
1.157082778
1.193971363
1.240668474
1.270733737
1.284167152
1.298240254
1.296747652
1.295255051
1.272546182
1.284860146
1.252982438
1.215667395
1.193438291
1.176699829
1.168170677
1.180378026
1.184269452
1.216413696
1.228087974
1.250263771
1.281395178
1.312366663
1.342645155
1.386623598
1.424791556
1.443875535
1.491958633
1.529700133
1.569893765
1.634555403
1.654972062
1.67064438
1.709825175
1.725497493
1.758921109
1.762759228
1.804818612
1.828593625
1.848370597
1.868254184
1.890216752
1.89064321
1.946029395
1.959622732
1.983610973
2.012130327
2.005307005
2.033719745
2.049018912
2.07327369
2.126527587
2.1443855
2.165814996
2.19204214
2.217842827
2.248121319
2.268857821
2.331920243
2.357880851
2.362145428
2.393436756
2.405857335
2.387946114
2.320779037
2.201104365
2.022791768
1.840641053
1.628638303
1.405441041
1.196636724
1.002918345
0.854617704
0.737768313
0.648691976
0.588081685
0.566279039
0.563613678
0.578486388
0.616974189
0.657114514
0.696561845
0.733663659
0.771725002
0.820074636
0.84400957
0.889480615
0.913255628
0.943214277
0.973546076
0.976797815
0.990924224
0.996894631
0.994069349
0.996521481
0.965709917
0.919599185
0.905579391
0.871142937
0.869383799
0.851046121
0.857496293
0.816769589
0.844755871
0.868211041
0.893372041
0.925409671
0.955954698
0.992363519
1.01997665
1.055745784
1.094500121
1.137145884
1.171262495
1.215933931
1.255274648
1.288804879
1.313965879
1.34179224
1.359969996
1.406720414
1.425804393
1.460400768
1.476286315
1.500327864
1.521117673
1.528740603
1.563710129
1.587165299
1.625813021
1.635195089
1.665580196
1.650014492
1.676401558
1.71792787
1.721819296
1.744261628
1.768782942
1.76862302
1.789945902
1.828007245
1.864042915
1.894534636
1.931902986
1.957437136
1.98521019
2.026256736
2.051151201
2.081109849
2.105737777
2.143266049
2.145664873
2.112774328
2.03228045
1.903810089
1.718834092
1.475699936
1.243973521
0.988418786
0.745604472
0.552579087
0.388979279
0.261308526
0.17105943
0.117965455
0.116312931
0.111461976
0.130919105
0.161357519
0.195474129
0.239985644
0.270264136
0.301129007
0.329968204
0.329541747
0.35902063
0.392550861
0.429599368
0.455133519
0.473044739
0.445644836
0.442872862
0.435676389
0.431198584
0.409609167
0.396975359
0.346386823
0.341802403
0.348519111
0.334552624
0.324690791
0.320799365
0.320426215
0.327622687
0.347133124
0.385674232
0.409609167
0.442872862
0.481200741
0.528910689
0.543356941
0.571876295
0.615161745
0.671134309
0.708022894
0.738461307
0.768473263
0.803869246
0.839265229
0.86650521
0.904513247
0.936657491
0.948971455
0.977064351
1.000359599
1.011287576
1.024507763
1.046523638
1.069978807
1.088369793
1.108786452
1.122059946
1.130962249
1.164812323
1.186881505
1.203140202
1.23464476
1.253195667
1.269401057
1.307995472
1.333156473
1.374736092
1.406667107
1.429429283
1.460347461
1.495050451
1.5316725
1.573358733
1.617230562
1.63327603
1.658490337
1.690634581
1.706946586
1.720806459
1.652093473
1.544359614
1.377881217
1.187094734
0.950250828
0.710315103
0.484452481
0.257363793
0.07553292
-0.066210934
-0.155926958
-0.208221325
-0.23844651
-0.214564883
-0.206089037
-0.154167821
-0.116159784
-0.052244447
-0.014023182
0.018067755
0.060553596
0.094243749
0.143179762
0.160344682
0.188544192
0.219142527
0.226339
0.247768496
0.254538511
0.245742822
0.232949093
0.218396227
0.190143409
0.174631012
0.161410826
0.140087944
0.126174764
0.131718713
0.152348601
0.152615137
0.171965652
0.189237186
0.216797011
0.239079422
0.26866492
0.323624647
0.345533908
0.386633762
0.418991235
0.463449443
0.49266179
0.538292757
0.579659147
0.608125194
0.637230927
0.676891487
0.709248959
0.732330978
0.766500896
0.806214763
0.8383057
0.857283064
0.878765867
0.900408592
0.92828826
0.936870719
0.960805654
0.988951858
1.019177042
1.044817807
1.065767538
1.084744903
1.110385668
1.131228785
1.148553626
1.153457889
1.192798605
1.240348631
1.267535305
1.292323154
1.322921489
1.361515905
1.394033299
1.425431242
1.448140111
1.484335703
1.509496703
1.512855057
1.481670342
1.418767842
1.289604487
1.118435056
0.898116382
0.668788792
0.436742533
0.225486085
0.046160651
-0.09393068
-0.190470027
-0.253265913
-0.276081396
-0.292553322
-0.264620347
-0.241538328
-0.19745327
-0.145851897
-0.082789475
-0.021059733
0.033420229
0.06849637
0.116952618
0.153201516
0.205442576
0.230070504
0.252779373
0.277300687
0.274208869
0.291746939
0.279006517
0.256297649
0.234495002
0.212958892
0.186251983
0.170206514
0.16380965
0.176976529
0.188064428
0.19222239
0.220901665
0.240038951
0.261148604
0.307152721
0.3454806
0.396548902
0.460944004
0.507960958
0.539678744
0.589041215
0.624277276
0.674599277
0.70637037
0.73078507
0.770498936
0.811012411
0.843743034
0.881431228
0.934525203
0.962458177
0.983034758
1.024614377
1.032663765
1.065607617
1.076962051
1.109692674
1.124725306
1.149193312
1.180484641
1.206871707
1.234164995
1.25809993
1.269827514
1.296427809
1.334169309
1.366793318
1.395632515
1.420686901
1.472394889
1.501660544
1.529646826
1.56120469
1.592016254
1.634502096
1.652839774
1.644363928
1.598146583
1.494943836
1.332516786
1.130642405
0.880578312
0.634299031
0.418031705
0.219622292
0.052877359
-0.080923723
-0.168507459
-0.216377328
-0.227998298
-0.216803785
-0.182154103
-0.144146066
-0.085401528
-0.03236086
0.025157613
0.073027482
0.09365737
0.112368198
0.148297254
0.185239146
0.231030034
0.284443852
0.321119208
0.345907058
0.361899219
0.36627041
0.364617887
0.366430332
0.356408577
0.337751056
0.327622687
0.321385744
0.332260414
0.331140963
0.341375946
0.353956446
0.374639641
0.402572616
0.450069334
0.484559095
0.52469942
0.566279039
0.614735287
0.666763118
0.71628551
0.758877966
0.798112068
0.847421232
0.890280223
0.940815453
0.964857001
0.99577518
1.057558229
1.060543432
1.090182238
1.123019475
1.163373028
1.198555783
1.228514432
1.275957843
1.286939127
1.318656913
1.342325312
1.366846625
1.393127077
1.413223893
1.436998906
1.462906207
1.488546972
1.534604396
1.567868091
1.611793227
1.633595873
1.656784507
1.687489456
1.721979217
1.763185686
1.80199333
1.836802934
1.86814757
1.909673882
1.92934424
1.935048111
1.886112098
1.778858004
1.614138744
1.394832907
1.143755977
0.892572433
0.630034454
0.436156154
0.252619451
0.131345563
0.051118221
0.001489214
-0.009385455
0.01854752
0.05133145
0.110129296
0.162423663
0.212265898
0.274048947
0.323038268
0.365257573
0.394736457
0.438288442
0.477202701
0.515690502
0.56606581
0.602901088
0.620652387
0.633339501
0.64879859
0.640109516
0.626836022
0.626569486
0.616281196
0.595917844
0.576140871
0.585789475
0.583763801
0.594371935
0.613402607
0.625290113
0.651144107
0.693203491
0.719004178
0.760104032
0.8013105
0.830736077
0.866825054
0.920238872
0.95440879
1.013952936
1.053080424
1.091248382
1.120993801
1.167744219
1.200048385
1.227928052
1.261511591
1.305596648
1.348775483
1.382998708
1.408639473
1.424738249
1.436039376
1.46093384
1.507737565
1.521970588
1.530286512
1.548517576
1.573305426
1.585779311
1.590843496
1.616377646
1.632263193
1.665740117
1.68359803
1.714942666
1.753750311
1.792717877
1.817718955
1.835896712
1.889843602
1.913405386
1.924653206
1.941178439
1.879875155
1.759880639
1.585086318
1.364127958
1.101749901
0.852325494
0.607165664
0.378157916
0.208481087
0.089659329
-0.006773402
-0.087213973
-0.117865615
-0.079111278
-0.026656989
0.030968098
0.087900192
0.1138608
0.181401027
0.238226506
0.290894024
0.339670115
0.391911175
0.4009734
0.441700103
0.491755568
0.526671786
0.53365503
0.547408288
0.514197901
0.514944201
0.499431805
0.491275803
0.472564974
0.456412892
0.456892656
0.448736654
0.443885699
0.450815635
0.469419849
0.474377419
0.514890894
0.544209856
0.574968113
0.626569486
0.667349497
0.703491781
0.7576519
0.78510511
0.82018125
0.863200164
0.901154893
0.938629857
0.983994288
1.003558031
1.048176161
1.080053869
1.114277094
1.133894145
1.168916978
1.189440251
1.203246817
1.230913256
1.256287485
1.268441527
1.266522468
1.287525506
1.314605566
1.323347947
1.352400373
1.371644274
1.391527861
1.411358141
1.43977088
1.478685139
1.494890529
1.51546711
1.514081122
1.509070245
1.455869656
1.354052896
1.188960486
0.974079148
0.716338817
0.475496871
0.258003479
0.064071872
-0.103259441
-0.229330978
-0.318833773
-0.348046121
-0.331627502
-0.295964983
-0.254012214
-0.204169978
-0.159818384
-0.09947463
-0.057415246
-0.013703339
0.031341248
0.082889315
0.108263544
0.150056391
0.221328123
0.255764576
0.273889026
0.311630526
0.304487361
0.284763695
0.295425136
0.3136562
0.311204068
0.309178395
0.262214748
0.278046988
0.275541549
0.285083539
0.30507374
0.32890206
0.332793486
0.368882463
0.395749294
0.436529305
0.464249051
0.519262085
0.538879136
0.584616717
0.639736365
0.684887567
0.721669538
0.766660818
0.783985659
0.842410354
0.913575471
0.932073071
0.959686203
0.998067389
1.02093618
1.052494045
1.085917661
1.141570382
1.15761585
1.182563622
1.198342554
1.232992237
1.251969601
1.268548142
1.302344909
1.324840549
1.339766566
1.356718257
1.385557454
1.415676024
1.452884452
1.470689058
1.502193616
1.541800868
1.575917479
1.599479263
1.632049964
1.638926594
1.60449014
1.531405964
1.377508066
1.166518153
0.931113541
0.669321864
0.440100887
0.196806809
-0.000536459
-0.136416522
-0.231143423
-0.276347932
-0.322085513
-0.307372725
-0.260515692
-0.197559885
-0.134870613
-0.079857579
-0.038704417
0.02254556
0.068976134
0.116259624
0.167914305
0.191955854
0.21642386
0.277460608
0.306832878
0.372454046
0.391004953
0.389352429
0.359340473
0.359287166
0.375332635
0.357474721
0.35502259
0.353210145
0.33023474
0.339456886
0.364564579
0.381836113
0.41621926
0.453907453
0.484292559
0.515583888
0.558549494
0.596450916
0.63222005
0.688512457
0.694376249
0.743632106
0.799071598
0.845395558
0.890440145
0.931859842
0.94449365
0.971840245
1.007023
1.051534515
1.096472488
1.151698751
1.157989001
1.199728541
1.238696107
1.257353629
1.285393218
1.311033983
1.310607525
1.338753729
1.373883176
1.403575289
1.443449077
1.466744325
1.490146188
1.516266718
1.546438595
1.601291708
1.632103272
1.65443899
1.683118266
1.724804499
1.759134338
1.804498769
1.829766383
1.876090343
1.910793333
1.928064867
1.97833356
2.012929935
2.048379226
2.075619207
2.097261932
2.127433809
2.166614604
2.204462719
2.242737291
2.272482711
2.30681255
2.346792953
2.329521419
2.282664387
2.164322394
1.983824202
1.735785783
1.462426442
1.166251617
0.900728435
0.661165861
0.491862182
0.310670996
0.220208672
0.168980449
0.173564868
0.199312248
0.240465409
0.293506077
0.371761052
0.435196624
0.508334108
0.581258363
0.634778796
0.681742442
0.716871889
0.758558123
0.816503053
0.850513049
0.887241713
0.899395755
0.904566554
0.904300018
0.904193404
0.881537842
0.867411433
0.843050041
0.843316577
0.825511971
0.824552441
0.820127943
0.832335293
0.841823975
0.857123143
0.882550679
0.915547838
0.959259745
0.993163127
1.048496004
1.083358916
1.11683584
1.153404581
1.199195469
1.248291404
1.282461322
1.317750691
1.342218697
1.3821991
1.421593124
1.468396849
1.490572645
1.512641828
1.530499741
1.557313265
1.597613511
1.636634384
1.645110229
1.667819098
1.684770789
1.706946586
1.729388918
1.746873681
1.767983334
1.78712062
1.821663688
1.857912587
1.884566189
1.909780496
1.930250462
1.960635569
1.989794609
2.02161901
2.045340715
2.075619207
2.117092212
2.153021267
2.187297799
2.213684865
2.251106522
2.282930923
2.316461154
2.366836462
2.39087801
2.420463509
2.441573161
2.474463706
2.491681933
2.535553762
2.511192369
2.446264195
2.315821468
2.127540424
1.880674763
1.628265153
1.361515905
1.119821043
0.887454942
0.740806824
0.61009756
0.520061693
0.483279722
0.499858263
0.521554295
0.582591043
0.653116474
0.720443472
0.794700407
0.853071795
0.914161851
0.979996247
1.029038875
1.096579102
1.138638486
1.215987239
1.240455245
1.245306201
1.256927171
1.287099048
1.261245055
1.234111688
1.219238978
1.176006836
1.164225944
1.151698751
1.134107374
1.130855634
1.123072782
1.128296888
1.139224865
1.180058183
1.198395861
1.231286406
1.268814678
1.304743733
1.34483075
1.360183225
1.419034378
1.466531096
1.52117098
1.577250159
1.617976863
1.64681606
1.693086713
1.726776865
1.749432427
1.778591468
1.801460258
1.830832527
1.865109059
1.888351
1.906955214
1.925612736
1.956637528
1.974548749
1.994059185
2.011170798
2.016608133
2.044274571
2.052270652
2.061172955
2.084201667
2.118798042
2.123382462
2.144918572
2.168427049
2.186604805
2.223333469
2.248387855
2.275681143
2.30014915
2.3316004
2.366143468
2.383201773
2.372220489
2.301321908
2.176263208
2.003547868
1.798208519
1.550330021
1.301012229
1.05638547
0.833774587
0.654609075
0.531149591
0.462223377
0.433970559
0.433330872
0.457372421
0.507321271
0.569424164
0.633712651
0.697094917
0.751841415
0.833454744
0.869437107
0.884789581
0.945559794
0.989751466
1.031704235
1.05563917
1.099084541
1.086983805
1.105161562
1.097645246
1.112464649
1.085437896
1.069125892
1.038314328
1.010168125
1.014166165
0.999719913
0.994868957
1.008995366
1.011927262
1.025200756
1.060916583
1.094500121
1.118435056
1.164172637
1.206498556
1.241361468
1.284806839
1.331717178
1.377188223
1.421113359
1.470209294
1.503046531
1.529646826
1.565522574
1.592549326
1.614298665
1.635248397
1.654918755
1.667605869
1.686156776
1.702788624
1.727896317
1.748846048
1.75833473
1.771768145
1.783655652
1.807430665
1.825288578
1.82049093
1.858392352
1.885099261
1.903436939
1.94155159
1.965273295
2.006213228
2.012396863
2.025723664
2.054989319
2.086014112
2.102326116
2.076365508
1.991393825
1.881367757
1.675068878
1.443075927
1.178725503
0.901741272
0.653329702
0.435516468
0.260562225
0.130226112
0.071908031
0.02617045
0.027289901
0.050585149
0.093177605
0.144512442
0.20021847
0.283964087
0.321225823
0.370055221
0.403798681
0.433277565
0.476296479
0.509400252
0.543730091
0.572196138
0.598903047
0.614362136
0.610630632
0.600395649
0.580458755
0.572835825
0.553325388
0.537546456
0.516063653
0.493674627
0.510146553
0.518142634
0.532002507
0.558016422
0.576034257
0.580085604
0.618253562
0.672893446
0.706423677
0.743152341
0.793421034
0.84267689
0.86383985
0.916240832
0.942734512
0.973865919
1.003611339
1.039220551
1.073443776
1.10196313
1.131601935
1.160920897
1.197009874
1.214121486
1.236190669
1.268281606
1.293869063
1.320256129
1.326759608
1.372017424
1.384278081
1.415995867
1.439557651
1.462533056
1.468929921
1.485455154
1.495423601
1.524742563
1.538495822
1.567548248
1.589830659
1.622774511
1.651027329
1.682478579
1.714782745
1.748366283
1.765264667
1.797728754
1.82182361
1.879288776
1.922574225
1.945443015
1.954558547
1.924653206
1.834457417
1.665153738
1.467437319
1.21577401
0.93591119
0.696988302
0.449376341
0.248354875
0.072760946
-0.026390453
-0.100967231
-0.105391729
-0.102299911
-0.064984869
-0.025590845
0.027449823
0.091098624
0.168980449
0.226179078
0.27895321
0.317387704
0.365684031
0.410248853
0.46121054
0.483492951
0.509400252
0.531682663
0.572409367
0.585576246
0.555031219
0.553058852
0.54660868
0.534294716
0.522460517
0.513611521
0.530616519
0.525765564
0.537439841
0.546555373
0.581364977
0.594798393
0.643894327
0.681795749
0.720496779
0.763462386
0.79827199
0.844542643
0.914055236
0.950570671
0.988258864
1.031597621
1.070618494
1.115823003
1.159161759
1.17611345
1.228567739
1.254954805
1.278996354
1.304583811
1.34712296
1.367646233
1.380386655
1.403628596
1.410078768
1.447127274
1.488440357
1.49334462
1.515680338
1.528154224
1.564083279
1.583806945
1.630450748
1.639353051
1.65481214
1.693566478
1.721819296
1.74671376
1.756895436
1.802526402
1.856153449
1.903117096
1.934195195
1.959835961
1.947148846
1.927265259
1.865002445
1.743248791
1.573678576
1.348988712
1.086717269
0.850619664
0.625023577
0.429972519
0.279539589
0.176070307
0.059700681
0.058208079
0.068229833
0.096002887
0.134010923
0.182787014
0.242064625
0.304434054
0.373733419
0.403212302
0.44996272
0.49399447
0.524806034
0.57827316
0.618146948
0.663991143
0.691710889
0.724974584
0.715219366
0.709835338
0.709355574
0.713247
0.703438474
0.692563804
0.679929997
0.695922158
0.701146264
0.70503769
0.707063364
0.721722845
0.749869049
0.783985659
0.805734998
0.85355156
0.901847887
0.960219275
0.998280618
1.033836523
1.083305608
1.138958329
1.180378026
1.205485719
1.208790766
1.251916294
1.292749612
1.343711299
1.374096405
1.408532859
1.413490429
1.461306991
1.49105241
1.517972548
1.538975586
1.574904642
1.585885926
1.61115354
1.649961185
1.662221842
1.681678971
1.715848889
1.721286223
1.743515327
1.775339728
1.803912389
1.828700239
1.860311411
1.908341202
1.934141888
1.969591179
1.983344437
2.003228024
1.99779069
1.926145808
1.826141493
1.677254473
1.461520219
1.220678273
0.963524321
0.753227402
0.540051894
0.363018671
0.238493042
0.152348601
0.117059232
0.093710677
0.119991128
0.159012002
0.198192796
0.268078541
0.31232352
0.352677073
0.410728618
0.452788002
0.502896773
0.540425045
0.579765761
0.621292073
0.663831222
0.703651703
0.735636025
0.756639063
0.766660818
0.730411919
0.731797906
0.736222404
0.734409959
0.720390165
0.716018974
0.689205451
0.718737642
0.73974068
0.747843375
0.78473196
0.821247394
0.843050041
0.884203202
0.928128338
0.967309133
1.016138532
1.055745784
1.07813481
1.148127168
1.197169796
1.248984398
1.279902576
1.331130799
1.363968036
1.382039178
1.430388812
1.462586363
1.484922082
1.515680338
1.52213051
1.574798027
1.595321301
1.619416157
1.655025369
1.681572357
1.707746194
1.72363174
1.744581472
1.766277503
1.784561874
1.802206559
1.807643894
1.866601661
1.892508962
1.923373833
1.962181477
1.996351395
2.026150122
2.063198629
2.119331114
2.157605687
2.192521905
2.208407452
2.233675066
2.257130236
2.237246649
2.200038221
2.090225381
1.92705203
1.700709643
1.445901209
1.178139124
0.92770188
0.704717847
0.533814952
0.389032586
0.324211026
0.274048947
0.267545469
0.267598776
0.307419257
0.333912937
0.388819357
0.457052578
0.483972716
0.538186142
0.592399569
0.619266399
0.661059247
0.70199918
0.748003296
0.796033087
0.818528727
0.816556361
0.846355087
0.854617704
0.864372922
0.857602907
0.857976058
0.856003691
0.854724318
0.850619664
0.842516969
0.846621623
0.866185367
0.859628581
0.875940586
0.930154012
0.954515404
0.986286497
1.043591742
1.081972928
1.119287971
1.146634566
1.194344514
1.231393021
1.275691307
1.320469358
1.36599371
1.411358141
1.446114437
1.501074165
1.531832421
1.561364612
1.59819989
1.628425074
1.652626545
1.677840852
1.70209563
1.729975298
1.762705921
1.793517485
1.816066432
1.84831729
1.875237428
1.888510922
1.92438667
1.956211071
1.992886427
2.037504556
2.051097893
2.071194709
2.10339226
2.124981678
2.16421578
2.189163551
2.22178756
2.25649055
2.283623916
2.331280557
2.37200726
2.394609515
2.427393445
2.458578159
2.494667136
2.55330506
2.576120544
2.601281544
2.640195803
2.668928386
2.68028282
2.666582869
2.597336811
2.46390888
2.26086174
2.029295247
1.757588429
1.478152067
1.21843937
0.982981451
0.809679731
0.687339698
0.572675903
0.546502066
0.552845623
0.577953316
0.617453954
0.687393006
0.748163218
0.801043964
0.862293941
0.911070033
0.95019752
1.006703156
1.033569987
1.071098259
1.107773615
1.160281211
1.177339516
1.183469844
1.174727463
1.173661319
1.16182712
1.157402622
1.139544708
1.115609774
1.097325403
1.077601738
1.079254261
1.077281894
1.091994683
1.116622611
1.129469647
1.18432276
1.204632804
1.233791845
1.260658675
1.307409093
1.35170738
1.387902971
1.452191459
1.48668122
1.514400966
1.552035851
1.588391364
1.627465545
1.656091513
1.680985977
1.719900236
1.765424588
1.75604252
1.804552076
1.82811386
1.85231533
1.877156487
1.916923661
1.948907984
1.955251541
1.980945613
1.998963448
2.011757177
2.031747378
2.052643802
2.066770211
2.096249095
2.140707303
2.165122002
2.180207941
2.212618721
2.235860662
2.262034499
2.310330826
2.353776197
2.378617354
2.40671025
2.426487223
2.437681735
2.418651064
2.352390209
2.226478594
2.048805684
1.849063591
1.599052805
1.34616343
1.092900905
0.881484535
0.701839258
0.572835825
0.484452481
0.450602406
0.445218379
0.462809756
0.507587807
0.555351062
0.604233768
0.660846018
0.71266062
0.778974782
0.801950187
0.850832893
0.903287181
0.951796737
1.00739615
1.043538434
1.06688699
1.070298651
1.105214869
1.090182238
1.064115015
1.048815847
1.03847425
1.008302373
0.985433582
0.991244067
0.96869512
0.97956979
0.982874836
0.991723832
1.030105019
1.058251223
1.087356956
1.121900024
1.170249658
1.198449169
1.245732658
1.290297481
1.340139716
1.381666028
1.423352261
1.461093762
1.505285434
1.533325023
1.566695332
1.613872208
1.653159617
1.681305821
1.70572052
1.723098668
1.751244872
1.782429586
1.796555995
1.821450459
1.826941101
1.846291616
1.86281685
1.90359686
1.921614695
1.925506121
1.938779615
1.956904064
1.98920823
2.018420577
2.03228045
2.050937972
2.073593533
2.094809801
2.120130722
2.152274966
2.17146556
2.162563257
2.112401178
2.01666144
1.82944654
1.601345015
1.340992632
1.067846519
0.819061799
0.595757922
0.421123523
0.298090496
0.232735864
0.189290493
0.169833364
0.198406025
0.236787212
0.287109212
0.309764774
0.396282366
0.461157233
0.516436803
0.579285996
0.630727448
0.688725686
0.725027892
0.760157339
0.802163415
0.841130981
0.85984181
0.885642497
0.889107465
0.876473658
0.862187327
0.839478458
0.806801142
0.758184972
0.7576519
0.75365386
0.735902561
0.735209568
0.740806824
0.766127746
0.802696488
0.837506092
0.878659253
0.913895315
0.961285419
1.00606347
1.061183119
1.10196313
1.163106492
1.195623887
1.226755294
1.264176951
1.297813796
1.347336189
1.390355102
1.422019581
1.462533056
1.496862895
1.523569805
1.549903563
1.579382447
1.612699449
1.621228602
1.642018411
1.679440068
1.692873484
1.714196365
1.738664372
1.7507118
1.772087989
1.799221355
1.823636055
1.841493968
1.86356315
1.886591862
1.908074666
1.939739145
1.967032433
1.997310925
2.024764135
2.079617247
2.121463402
2.150888979
2.178235574
2.209793439
2.232822151
2.264753166
2.290020781
2.327069288
2.343434599
2.326216372
2.264806473
2.125621364
1.902584024
1.644630464
1.367486312
1.099724227
0.838252392
0.619746164
0.422989275
0.294358992
0.21605071
0.191689318
0.206082263
0.226179078
0.265892945
0.363498435
0.434770167
0.510359782
0.580991827
0.658873652
0.724068362
0.782386443
0.841770668
0.890173609
0.929141175
0.972586546
1.012140491
1.037194877
1.040126773
1.037994485
1.014059551
0.990870917
0.992470133
0.963044557
0.939589387
0.925303056
0.908351365
0.909097666
0.872688846
0.906752149
0.926848965
0.959153131
1.002385273
1.055479248
1.109212909
1.153831039
1.198982241
1.224249855
1.26934775
1.327079451
1.397604882
1.429002825
1.470529137
1.52250366
1.558059565
1.591376568
1.643084555
1.659663096
1.692500333
1.71734149
1.748632819
1.772407832
1.804711997
1.821290538
1.835257025
1.84735776
1.863349922
1.878116017
1.905675841
1.940112295
1.94725546
1.966925819
1.983184516
2.008292209
2.050511514
2.070341794
2.08718687
2.119171193
2.140973839
2.173331312
2.215337388
2.224292999
2.241457918
2.221680946
2.168853507
2.055948849
1.843093184
1.614618509
1.374469556
1.122912861
0.884789581
0.689631908
0.534721174
0.421496673
0.344414456
0.324637484
0.322345274
0.377784766
0.444205542
0.516916568
0.584616717
0.669268556
0.730358612
0.796459545
0.874661213
0.920558715
0.960272582
1.016884832
1.062622413
1.109532753
1.131495321
1.148713547
1.153884346
1.162893264
1.140131088
1.114277094
1.066780375
1.065394388
1.030798013
1.002172044
0.991990368
0.991403989
0.982341764
1.004197718
1.042738826
1.059797131
1.087303649
1.130962249
1.194824279
1.235764211
1.277397137
1.318070534
1.361089447
1.409758924
1.447127274
1.496329823
1.534284553
1.57037353
1.603957068
1.642071719
1.663980979
1.706786664
1.728855846
1.753697003
1.771341688
1.806257906
1.803805775
1.8321119
1.854767462
1.902637331
1.908927581
1.905142769
1.9009315
1.91713689
1.939206073
1.968738264
1.986009798
2.019966486
2.027802645
2.073167076
2.090118767
2.084361589
2.036331798
1.933555509
1.763665451
1.576290629
1.321855345
1.053773417
0.804455625
0.580192219
0.388872664
0.254858354
0.171912345
0.142486768
0.151175843
0.174044633
0.18001504
0.257523714
0.326023471
0.397295203
0.471818674
0.502736852
0.54090481
0.617134111
0.677371251
0.74832314
0.801417115
0.85317841
0.849873363
0.89262574
0.889214079
0.892039361
0.892785662
0.865972138
0.813571157
0.788143621
0.767833576
0.758184972
0.750402121
0.747470224
0.743578798
0.757758515
0.78473196
0.804882083
0.836706484
0.866291982
0.928128338
0.968855042
1.00510394
1.060063667
1.097698553
1.153031431
1.212842114
1.268654756
1.298453483
1.326119922
1.353839668
1.385770683
1.390515024
1.432627715
1.458001944
1.50096755
1.530979506
1.557046729
1.542227326
1.560618311
1.583273873
1.613658979
1.629970983
1.660995776
1.655931592
1.691007732
1.708279266
1.72858931
1.759987253
1.788240071
1.801247029
1.823262904
1.839574909
1.854181083
1.813507686
1.709505331
1.535883769
1.332623401
1.073123932
0.834360967
0.562867378
0.318826999
0.118605141
-0.021699419
-0.116373013
-0.156726567
-0.169307067
-0.149103636
-0.09489021
-0.026816911
0.034966138
0.103998967
0.166315088
0.218822684
0.242970848
0.313602893
0.35598212
0.386047383
0.437328913
0.478055616
0.507960958
0.534081488
0.550660028
0.538879136
0.524006426
0.490582809
0.470592608
0.444632
0.41717879
0.410622004
0.398574575
0.390738417
0.405184669
0.404491675
0.431944885
0.461050618
0.494261006
0.518142634
0.560361939
0.595917844
0.652903245
0.698694133
0.737928235
0.78569149
0.826631422
0.868530884
0.905366162
0.94390727
0.976584586
1.009315209
1.025627214
1.061076504
1.097645246
1.12083388
1.151218986
1.152391744
1.169290128
1.160014675
1.201221143
1.243973521
1.260285525
1.282621243
1.322068574
1.361196062
1.362582049
1.366047017
1.386037219
1.406827028
1.44968602
1.467917084
1.501980387
1.530073283
1.562803907
1.591749718
1.630077598
1.661475541
1.700976179
1.740370202
1.780297298
1.809189803
1.836589705
1.83610994
1.798901512
1.692127183
1.513334821
1.272759411
0.990657688
0.697734603
0.41984415
0.16780769
-0.019034059
-0.161364293
-0.243350773
-0.284024169
-0.271976741
-0.224160179
-0.180661501
-0.124902166
-0.051338225
0.019560356
0.087580348
0.143872756
0.189503722
0.243290691
0.286309604
0.322878346
0.372827196
0.408276487
0.438181828
0.456945964
0.456572813
0.461477076
0.43471686
0.411474919
0.398148118
0.386153997
0.37122798
0.337377906
0.325010634
0.313762814
0.320586136
0.328209066
0.359127245
0.396868745
0.422776046
0.439834351
0.477309315
0.532269043
0.574435041
0.616974189
0.658447194
0.703598396
0.751201729
0.78643779
0.819861407
0.860481496
0.884736274
0.911229954
0.942148133
0.983727752
0.998174004
1.036768419
1.054573025
1.074829763
1.08613089
1.096685717
1.100737064
1.119927657
1.133840838
1.15591002
1.164225944
1.185708747
1.214921095
1.217586455
1.235497675
1.260178911
1.282994394
1.301225457
1.314765487
1.361462598
1.359436924
1.340086409
1.274092091
1.143969206
0.959899432
0.74373872
0.495487072
0.242651004
0.00100945
-0.17724984
-0.320752833
-0.424435344
-0.473477972
-0.495067389
-0.463189681
-0.412014766
-0.358281104
-0.298736957
-0.238179974
-0.179222207
-0.127141068
-0.072874335
-0.014396332
0.018067755
0.073560554
0.131079027
0.17868236
0.202404065
0.229537432
0.242757619
0.237320284
0.238119892
0.205229347
0.171379273
0.148243946
0.127347523
0.116206317
0.100160849
0.099574469
0.089659329
0.106344484
0.135823368
0.167327925
0.195740665
0.231509799
0.27266296
0.307046107
0.37389334
0.409236016
0.449802798
0.493727934
0.533068651
0.564519901
0.610950475
0.656528135
0.692723726
0.717991341
0.745817701
0.767726962
0.800564199
0.824978899
0.832281986
0.853498253
0.873595069
0.898809376
0.897796539
0.936124419
0.944546957
0.967788898
0.969601343
0.985753425
1.009261902
1.026160286
1.052653966
1.066727068
1.105801248
1.118594977
1.12749728
1.124512077
1.087676799
0.969014963
0.782386443
0.556630435
0.303474524
0.034433066
-0.197666499
-0.426567632
-0.59245965
-0.716825357
-0.789802919
-0.813524625
-0.810059656
-0.772211542
-0.699980281
-0.638143924
-0.603760778
-0.54117812
-0.479341764
-0.425821331
-0.385574392
-0.344367924
-0.310944307
-0.249587716
-0.215844256
-0.181034651
-0.153688056
-0.133964391
-0.127887369
-0.139135189
-0.146811427
-0.164882569
-0.186951751
-0.209234162
-0.237060523
-0.238713046
-0.232049646
-0.219255917
-0.213605353
-0.196760277
-0.186578601
-0.149156944
-0.120317746
-0.07601946
-0.040410248
0.00404796
0.046960259
0.100800535
0.156026798
0.181507642
0.215517638
0.252246301
0.279379668
0.331727342
0.361739298
0.39335047
0.435409853
0.460570854
0.473311275
0.497032981
0.529497068
0.552419166
0.570650229
0.58493656
0.632539893
0.632966351
0.655408683
0.650237885
0.675079042
0.687339698
0.691870811
0.705517455
0.738834457
0.764048765
0.77444367
0.794700407
0.828177331
0.85488424
0.889853766
0.931753228
0.96736244
1.00606347
1.033036915
1.056598699
1.060543432
1.012087184
0.91874627
0.73382358
0.491222496
0.198406025
-0.085881293
-0.365211041
-0.608398504
-0.807287682
-0.94039577
-1.024301308
-1.035815664
-1.036455351
-1.018224287
-0.971687098
-0.937463873
-0.850733053
-0.789483076
-0.742785965
-0.680949609
-0.62049924
-0.586702472
-0.526571947
-0.495653768
-0.44586484
-0.409296098
-0.380510208
-0.367023486
-0.351084632
-0.356415352
-0.353056998
-0.370914911
-0.374113344
-0.412387916
-0.427847005
-0.432271503
-0.4418668
-0.423529122
-0.409136177
-0.391171649
-0.35684181
-0.332267189
-0.289248275
-0.260089235
-0.233808783
-0.211526372
-0.15112931
-0.099581244
-0.049579087
0.001809058
0.047173488
0.097335567
0.140407787
0.172818567
0.212479127
0.238386428
0.277833759
0.300222784
0.340256495
0.391964482
0.40363876
0.421123523
0.438821514
0.463342828
0.491275803
0.516809954
0.53727992
0.559349102
0.575287956
0.617933719
0.638350378
0.641868654
0.669695014
0.687019855
0.713673457
0.758398201
0.779561161
0.80227003
0.817675812
0.843796342
0.875940586
0.921358323
0.966882675
0.987405949
1.025360678
1.057025157
1.078294731
1.148233783
1.158148922
1.17744613
1.217799684
1.248291404
1.280115805
1.294082292
1.314179108
1.345417129
1.358637316
1.379587047
1.414343344
1.439344423
1.458055251
1.487267599
1.51717294
1.549530413
1.582207729
1.618829778
1.626719244
1.618776471
1.566535411
1.44110356
1.23960233
0.994229271
0.693576641
0.387486677
0.103625817
-0.151395846
-0.362972138
-0.479768222
-0.582757739
-0.62183192
-0.617620651
-0.578493163
-0.510366557
-0.435629857
-0.342022407
-0.266592714
-0.172985264
-0.102406526
-0.026710296
0.002128901
0.078731353
0.129639732
0.195367515
0.222021116
0.245529593
0.270743901
0.265946252
0.247288731
0.221967809
0.166528317
0.118285298
0.072174567
0.047120181
0.03779142
0.018227676
-0.000216616
0.001649136
-0.00890569
0.022119102
0.054263346
0.091258546
0.138435421
0.192009161
0.238759578
0.27799368
0.346333516
0.378104609
0.428319995
0.475870021
0.518249248
0.557749886
0.600129113
0.632006821
0.66137909
0.691710889
0.740700209
0.760423875
0.784358809
0.800830735
0.828603789
0.850992814
0.876260429
0.892199283
0.908991052
0.915387916
0.92695558
0.936550876
0.962191641
0.972053474
0.979356561
1.005423784
1.023388311
1.032450536
1.037354799
1.068486206
1.100843678
1.133094537
1.159588217
1.194397821
1.226115607
1.265776167
1.316258089
1.322068574
1.311140597
1.260338832
1.111078662
0.928608103
0.685633868
0.430505591
0.176923222
-0.058214854
-0.261475222
-0.408229954
-0.492668565
-0.565379591
-0.592886108
-0.582757739
-0.582331282
-0.520548233
-0.450129416
-0.368676009
-0.292286786
-0.217923237
-0.173891486
-0.118771837
-0.058694619
0.000902835
0.062152812
0.09861494
0.117112539
0.170899508
0.194941057
0.191582703
0.185239146
0.166155167
0.152295294
0.10490519
0.068069912
0.046693723
0.017374761
0.003834731
-0.005120879
0.012790342
0.042908912
0.049625619
0.078091666
0.114287258
0.128573588
0.186785055
0.232949093
0.284230623
0.318134005
0.380396819
0.399694027
0.440687266
0.515530581
0.564306672
0.599009662
0.644534014
0.68979183
0.71266062
0.754186932
0.763728922
0.795819858
0.814317458
0.85317841
0.857602907
0.868957342
0.896517166
0.919012806
0.917893355
0.934311974
0.946252787
0.956914228
0.972959696
0.980689241
1.008249065
1.006756464
1.032610458
1.052813888
1.086184197
1.126004679
1.157455929
1.179844954
1.202767052
1.228887582
1.214281408
1.172755096
1.04113961
0.828870325
0.608231808
0.343668156
0.071321651
-0.194201531
-0.416972336
-0.629028392
-0.718957645
-0.802383419
-0.838898854
-0.83916539
-0.807394296
-0.791402135
-0.709095812
-0.626043189
-0.540005362
-0.463189681
-0.411481694
-0.368036322
-0.307852489
-0.253852292
-0.223680415
-0.174531173
-0.144039452
-0.119997903
-0.111202215
-0.10613803
-0.122290113
-0.143186537
-0.17495763
-0.216643864
-0.243297466
-0.284290705
-0.310357928
-0.321659055
-0.340156655
-0.336638379
-0.332107267
-0.323311578
-0.30230854
-0.271656898
-0.23748698
-0.2294909
-0.176343618
-0.126501382
-0.069889132
-0.018980752
0.020359964
0.055169569
0.101600143
0.159918224
0.205122733
0.231030034
0.255444733
0.268131848
0.293985842
0.326343314
0.351184471
0.373466882
0.397668353
0.409502552
0.425707942
0.453907453
0.462010148
0.473577811
0.47283151
0.480241212
0.497459439
0.548954197
0.543037098
0.553378695
0.555777519
0.543996627
0.566652189
0.579499225
0.601994865
0.647305988
0.665323823
0.680409762
0.717404961
0.742832498
0.77652265
0.777162337
0.744218485
0.619426321
0.451082171
0.216583782
-0.043981831
-0.324377723
-0.590114133
-0.809313356
-1.013799789
-1.169243596
-1.245899355
-1.296487891
-1.281082109
-1.256240952
-1.20346682
-1.141683771
-1.057138546
-0.981335702
-0.904573329
-0.854624479
-0.792574894
-0.739800762
-0.68665348
-0.657707668
-0.606106295
-0.57321575
-0.550986646
-0.544003402
-0.536647008
-0.550880031
-0.574761659
-0.612236623
-0.646406541
-0.664477683
-0.709628884
-0.732071217
-0.754940008
-0.774930209
-0.768480037
-0.758618205
-0.738841232
-0.720237018
-0.692623886
-0.660479643
-0.623324521
-0.587075623
-0.549547351
-0.498425743
-0.460684243
-0.411055236
-0.381523045
-0.341436028
-0.304654057
-0.277627305
-0.242231321
-0.212752438
-0.203796828
-0.191642785
-0.171226126
-0.140094719
-0.10976292
-0.088973111
-0.074207015
-0.058534697
-0.049099322
-0.030335186
-0.017541457
-0.001495989
-0.000643074
-0.013650032
0.011457661
0.030701562
0.038484414
0.059060994
0.091418467
0.110875597
0.131825328
0.118711756
0.056555556
-0.069249445
-0.246389283
-0.477635933
-0.73239106
-0.981975389
-1.232679168
-1.41813493
-1.578163156
-1.677581091
-1.727210098
-1.742029501
-1.72145292
-1.687389617
-1.621128762
-1.531519353
-1.462486524
-1.38668368
-1.330178044
-1.243447223
-1.199415473
-1.15277167
-1.118388523
-1.07403693
-1.030538251
-0.998180779
-0.972006942
-0.957773918
-0.963744325
-0.97413923
-0.988958632
-1.023395086
-1.055592637
-1.075582839
-1.09461351
-1.105115029
-1.116149621
-1.124145701
-1.118335216
-1.109752756
-1.075262995
-1.047436635
-1.007776075
-0.967475829
-0.924936681
-0.898443
-0.849986752
-0.785751571
-0.744171952
-0.703551863
-0.650351274
-0.578599777
-0.556637209
-0.531902667
-0.493201637
-0.470066311
-0.475930103
-0.432644653
-0.394050238
-0.362492373
-0.34729982
-0.332800261
-0.308652097
-0.287275909
-0.266432792
-0.245589675
-0.238553124
-0.234128626
-0.211632986
-0.18983034
-0.173145185
-0.143772916
-0.115946556
-0.100167623
-0.104165664
-0.128793592
-0.216697171
-0.359187327
-0.571136769
-0.824505909
-1.086830659
-1.334495927
-1.560838315
-1.737391774
-1.880308387
-1.980099473
-2.018693888
-2.011390801
-1.97919325
-1.941878208
-1.864902605
-1.786381094
-1.734513185
-1.669425089
-1.597140521
-1.547298285
-1.494630768
-1.459074863
-1.393720231
-1.33177726
-1.300379317
-1.273672408
-1.256560795
-1.253309056
-1.255547959
-1.265036641
-1.272712878
-1.292063393
-1.303631056
-1.32186212
-1.337641052
-1.348835565
-1.346969813
-1.338120817
-1.31157383
-1.28049573
-1.246112584
-1.215460941
-1.188807339
-1.150532767
-1.106287788
-1.066307385
-1.010068285
-0.965290234
-0.914808312
-0.867311593
-0.810272885
-0.770505711
-0.731804681
-0.701099732
-0.662292087
-0.632066903
-0.613942454
-0.575348038
-0.567511879
-0.528757542
-0.500984489
-0.495333925
-0.471932063
-0.457379196
-0.470812611
-0.426834168
-0.408070032
-0.375286102
-0.360253471
-0.330987816
-0.308758712
-0.262861209
-0.246389283
-0.222774192
-0.195214368
-0.158645626
-0.120104518
-0.104698736
-0.069036216
-0.021432883
0.014442865
0.051064914
0.069669128
0.054743111
-0.022925485
-0.174211329
-0.396768905
-0.656055145
-0.936504344
-1.214821255
-1.457688875
-1.657484275
-1.803652628
-1.898219608
-1.952273112
-1.943210888
-1.908614512
-1.855840381
-1.788619997
-1.714416369
-1.620915533
-1.548311122
-1.487594217
-1.439404505
-1.356618417
-1.312853203
-1.264823412
-1.228467899
-1.182357168
-1.153411356
-1.136832816
-1.124039087
-1.132195089
-1.139391561
-1.145095432
-1.164499254
-1.186355208
-1.21567417
-1.21833953
-1.206558638
-1.223670251
-1.218126302
-1.189873483
-1.161620665
-1.114497097
-1.086137665
-1.059643985
-1.010228207
-0.967369215
-0.92456353
-0.886981951
-0.820241332
-0.780847309
-0.730205465
-0.6794037
-0.636971166
-0.594432017
-0.555997523
-0.533022118
-0.511272779
-0.478808692
-0.445598304
-0.406684045
-0.384988013
-0.362812216
-0.348952343
-0.331414273
-0.312543523
-0.282744796
-0.267925394
-0.256997417
-0.239246118
-0.217336857
-0.200065323
-0.190256798
-0.161310986
-0.132098638
-0.106297952
-0.070742047
-0.053470513
-0.022925485
-0.007519703
0.00100945
-0.025963996
-0.099901087
-0.266379485
-0.474704037
-0.724714823
-0.991464071
-1.239982255
-1.465898185
-1.635575015
-1.783822348
-1.853281635
-1.878549249
-1.880574923
-1.833504662
-1.774760124
-1.684404413
-1.610414014
-1.542340715
-1.465631649
-1.398198036
-1.323781179
-1.258693084
-1.206931789
-1.161833894
-1.118708366
-1.088856332
-1.046317184
-1.009268677
-1.004790872
-1.013639868
-1.043385287
-1.051861133
-1.075582839
-1.086297587
-1.105168337
-1.122759714
-1.130382644
-1.134753835
-1.122866328
-1.125051924
-1.086937273
-1.051434675
-1.005643787
-0.962624874
-0.923497386
-0.895191261
-0.845349025
-0.770932169
-0.730951766
-0.686173715
-0.656268373
-0.577053869
-0.519215552
-0.480514522
-0.452208397
-0.415799577
-0.396502369
-0.37475303
-0.357321574
-0.324644259
-0.292819858
-0.248414957
-0.24836165
-0.261261993
-0.222934114
-0.196173897
-0.162750281
-0.146758119
-0.135510299
-0.08193656
-0.084282077
-0.049472473
-0.030388494
-0.013543417
0.008579072
0.03054164
-0.016102163
-0.108483547
-0.269844453
-0.474384194
-0.72535451
-0.963850939
-1.211143058
-1.430288973
-1.598419893
-1.71782803
-1.779078007
-1.82534866
-1.798161986
-1.761966395
-1.682911811
-1.610200785
-1.543833317
-1.448200193
-1.381832724
-1.313759425
-1.264343647
-1.223563636
-1.165778627
-1.108846534
-1.05191444
-1.017318065
-0.971260641
-0.959852899
-0.965130312
-0.963424482
-0.967475829
-0.97717774
-0.983148147
-1.009428599
-1.019610275
-1.041466228
-1.039227326
-1.048396165
-1.030698173
-1.000526296
-0.958680141
-0.93351914
-0.912302873
-0.876853583
-0.83420782
-0.787404095
-0.752914334
-0.695182632
-0.649018594
-0.605679837
-0.555411144
-0.525772338
-0.468520402
-0.402312854
-0.379763907
-0.346606827
-0.321925591
-0.283864248
-0.252306383
-0.220375368
-0.19478791
-0.154807507
-0.133324704
-0.12197027
-0.103259441
-0.074953316
-0.057468553
-0.030921566
-0.023032099
-0.00586718
0.009058837
0.039817094
0.078198281
0.093710677
0.117965455
0.14797741
0.176070307
0.182253942
0.222074424
0.255977805
0.279326361
0.312270213
0.359127245
0.375279327
0.36760309
0.309604852
0.17180573
-0.036998587
-0.29505876
-0.601841718
-0.872269163
-1.127077597
-1.319623218
-1.460620772
-1.553695149
-1.595008232
-1.597247135
-1.563130525
-1.502307005
-1.424371873
-1.342545315
-1.281615181
-1.187794503
-1.10586133
-1.037254959
-0.970354418
-0.939276318
-0.901214975
-0.858142754
-0.812298559
-0.765921292
-0.741879743
-0.72343545
-0.744758332
-0.741293363
-0.749769209
-0.756592531
-0.783459362
-0.785111885
-0.817362743
-0.794600567
-0.798705222
-0.772691307
-0.758671512
-0.742199586
-0.737881702
-0.695449168
-0.651524032
-0.599975966
-0.561754701
-0.507221432
-0.488297374
-0.43232481
-0.38200281
-0.327362926
-0.277094233
-0.236740679
-0.212219366
-0.172772035
-0.139028575
-0.108270318
-0.067756843
-0.033746847
-0.045314511
-0.009651991
0.018494212
0.042589068
0.074946541
0.09669588
0.087686963
0.121163887
0.140141251
0.161890591
0.180814648
0.202563987
0.202563987
0.225432778
0.255178197
0.267545469
0.300436013
0.324317641
0.331780649
0.375012791
0.405557819
0.430345669
0.4638759
0.490796038
0.528057774
0.590054052
0.609297952
0.639576444
0.659886489
0.651890408
0.580192219
0.447030824
0.254591818
-0.014183104
-0.290421034
-0.556797131
-0.823119921
-1.015079162
-1.168177452
-1.259172848
-1.308268783
-1.299313173
-1.296754427
-1.23646398
-1.147760792
-1.070678576
-0.981015859
-0.897750007
-0.810912572
-0.743425652
-0.676578418
-0.625670038
-0.572042991
-0.505302372
-0.468147251
-0.428966456
-0.408763026
-0.429392914
-0.430832209
-0.427154011
-0.452261704
-0.473797815
-0.50077126
-0.528117855
-0.547255142
-0.545229468
-0.54442986
-0.57055039
-0.539578904
-0.513458374
-0.472411827
-0.445011925
-0.395596147
-0.330987816
-0.280079436
-0.227251997
-0.190203491
-0.131618874
-0.094730289
-0.036092364
0.005753791
0.051384757
0.089339486
0.126014842
0.147817489
0.178469131
0.21471803
0.247715189
0.27266296
0.307472564
0.326449929
0.335405539
0.358274329
0.381409656
0.396122444
0.398841111
0.410035624
0.430665512
0.453321074
0.475710099
0.482266885
0.504016225
0.531682663
0.534667867
0.55748335
0.599222891
0.612176541
0.637870613
0.684780953
0.74011383
0.773537447
0.791768511
0.798538526
0.769326178
0.688245921
0.531149591
0.318293927
0.055542719
-0.214191732
-0.474117658
-0.695342554
-0.866885136
-1.017851137
-1.109752756
-1.148613708
-1.14818725
-1.118921595
-1.073663779
-1.004950793
-0.921098562
-0.839058775
-0.759204584
-0.696195469
-0.634838877
-0.576574104
-0.528011241
-0.471505605
-0.410149013
-0.365104426
-0.339357047
-0.323524807
-0.307319417
-0.308652097
-0.327256312
-0.340316576
-0.377311776
-0.394796539
-0.414093747
-0.430192522
-0.437708838
-0.437015844
-0.433390954
-0.412227994
-0.385840929
-0.362972138
-0.324590951
-0.286316379
-0.236527451
-0.189777033
-0.157579482
-0.108376933
-0.061306672
0.004101267
0.024677848
0.079317732
0.122923025
0.163916264
0.208321165
0.255657962
0.293292848
0.309285009
0.331354191
0.365364188
0.391378103
0.40992901
0.417445326
0.43604954
0.465261887
0.493301477
0.497832589
0.522727053
0.528271002
0.540744888
0.559562331
0.573049054
0.621025537
0.624383891
0.654609075
0.666443275
0.698480904
0.727480023
0.748056604
0.792621426
0.816822897
0.856323535
0.869223878
0.887828092
0.847687768
0.745871008
0.575287956
0.35598212
0.087100584
-0.191642785
-0.456632895
-0.686173715
-0.895084646
-1.026806747
-1.10053061
-1.120467504
-1.107993618
-1.064654862
-1.005270637
-0.946419484
-0.867151672
-0.794973718
-0.715919134
-0.62545681
-0.565272977
-0.524759502
-0.474757344
-0.429552836
-0.384828092
-0.350658174
-0.315048962
-0.287329216
-0.283597712
-0.294205845
-0.307052881
-0.326723239
-0.346979977
-0.378431227
-0.416012806
-0.420330689
-0.409562634
-0.421183605
-0.413827211
-0.409775863
-0.390265426
-0.368622702
-0.334239555
-0.293193008
-0.24111187
-0.19116302
-0.153901285
-0.107683939
-0.051871297
-0.007466396
0.020200043
0.065404552
0.114447179
0.158798773
0.19659358
0.229217589
0.255977805
0.288281971
0.318933613
0.349585255
0.379117446
0.400493635
0.408809559
0.439461201
0.46616811
0.477949002
0.491062574
0.499485112
0.530083447
0.548047975
0.560681782
0.572462674
0.583497265
0.604926761
0.623797512
0.647039452
0.674705891
0.702798788
0.722895603
0.759304424
0.790915595
0.821247394
0.840118145
0.848434068
0.826151657
0.710901483
0.519848464
0.287482363
0.036565354
-0.241325099
-0.496879834
-0.720023789
-0.907398611
-1.030431637
-1.116202928
-1.155330415
-1.139977941
-1.111298665
-1.069292588
-0.998287393
-0.94039577
-0.860488271
-0.802063576
-0.7230623
-0.678177634
-0.61953971
-0.573535593
-0.525399188
-0.476569789
-0.435683164
-0.413347446
-0.392504329
-0.37075499
-0.387173609
-0.400287181
-0.423049357
-0.455620058
-0.48190051
-0.497839364
-0.511486008
-0.514950976
-0.510739707
-0.523373514
-0.491655728
-0.482593503
-0.439734512
-0.400180566
-0.365157733
-0.301562239
-0.265793106
-0.210353614
-0.167761158
-0.090998784
-0.06514479
-0.028576049
0.004527725
0.048932626
0.08411538
0.130599262
0.159331845
0.190409945
0.22004875
0.258056786
0.273889026
0.289561344
0.307845715
0.329541747
0.334765853
0.348679033
0.37714508
0.384234938
0.412914213
0.413607207
0.451988394
0.485571932
0.511745769
0.555617598
0.598369975
0.649011819
0.665643667
0.665483745
0.635631711
0.564626515
0.420057379
0.253152523
0.010817975
-0.235727843
-0.505089143
-0.730951766
-0.918699738
-1.066413999
-1.164552562
-1.221004891
-1.247285342
-1.230706802
-1.204213121
-1.153038206
-1.083792148
-1.024887688
-0.96592992
-0.903293956
-0.8547844
-0.82296
-0.769173031
-0.737668474
-0.693583416
-0.658400662
-0.616980964
-0.599069744
-0.577693555
-0.577427019
-0.575454652
-0.585049949
-0.615008598
-0.622578221
-0.646406541
-0.65824074
-0.674126287
-0.670288168
-0.665650441
-0.677164797
-0.661759015
-0.635691793
-0.603440934
-0.567405265
-0.520708154
-0.463296296
-0.417878558
-0.363238674
-0.324910795
-0.279493057
-0.233275711
-0.198732643
-0.144039452
-0.088066888
-0.041529699
-0.009065612
0.02521092
0.077931745
0.111461976
0.131558792
0.173564868
0.191156245
0.213651885
0.261841598
0.268824841
0.28524346
0.311097454
0.348625726
0.359926853
0.392657476
0.419684228
0.450122642
0.459344788
0.486691383
0.524059733
0.543463555
0.579552532
0.615481588
0.643148027
0.681315984
0.704717847
0.693363413
0.615321666
0.477842388
0.276074621
0.039390636
-0.228211527
-0.475290416
-0.715972442
-0.90036206
-1.042425758
-1.141044085
-1.188754032
-1.208104547
-1.18688828
-1.159914835
-1.116309542
-1.052021054
-0.988532175
-0.950737367
-0.886182343
-0.834847506
-0.771625162
-0.720023789
-0.679670236
-0.65690806
-0.612183316
-0.560795171
-0.526678561
-0.511805851
-0.511486008
-0.490589584
-0.518522559
-0.54117812
-0.555837601
-0.546348919
-0.558822805
-0.562447695
-0.575454652
-0.578866313
-0.568471409
-0.553865235
-0.528810849
-0.479341764
-0.454340685
-0.415906191
-0.368676009
-0.323311578
-0.26819193
-0.204169978
-0.167707851
-0.126074924
-0.090199176
-0.047926564
-0.008958998
0.013643257
0.066310774
0.111728512
0.143392991
0.175537235
0.208107936
0.230816805
0.269517835
0.290467566
0.30736595
0.31898692
0.350864628
0.361526069
0.389405736
0.415792802
0.436262769
0.466114803
0.497192903
0.544689621
0.566172424
0.572196138
0.603594081
0.633819266
0.666230046
0.707809665
0.686913241
0.644107556
0.534401331
0.385514311
0.159331845
-0.08497507
-0.323791343
-0.554238385
-0.757871904
-0.896310712
-1.00921537
-1.07403693
-1.086084358
-1.077501898
-1.031391167
-0.994449274
-0.934425363
-0.899349223
-0.828184106
-0.750675431
-0.694063181
-0.642621729
-0.606266216
-0.578333241
-0.5106864
-0.461963616
-0.430139215
-0.387493452
-0.363238674
-0.361106386
-0.357055038
-0.384081791
-0.401939704
-0.426461018
-0.442932944
-0.478968614
-0.482700118
-0.470386154
-0.458018882
-0.451088946
-0.424808494
-0.410362242
-0.368409473
-0.324164494
-0.300282866
-0.265046805
-0.212752438
-0.193135387
-0.135456992
-0.085294913
-0.033107161
0.030061876
0.069136056
0.081023562
0.125321849
0.164929101
0.201870993
0.229590739
0.269890985
0.318507155
0.342921855
0.360673154
0.389299122
0.397881582
0.420057379
0.46750079
0.483013186
0.495220536
0.507641114
0.537226613
0.59026728
0.632166743
0.650824264
0.667989184
0.700186735
0.72716018
0.741179974
0.709089038
0.682275514
0.583070808
0.425281485
0.216956932
-0.013063652
-0.229277671
-0.46073755
-0.668209187
-0.831968917
-0.935118357
-1.009481906
-1.036455351
-1.036881809
-1.014439476
-0.973392929
-0.901055053
-0.84449611
-0.800091209
-0.745184789
-0.682228982
-0.635958329
-0.566712271
-0.543203794
-0.507541275
-0.458125497
-0.425501488
-0.38333549
-0.373153814
-0.354069835
-0.3671301
-0.356788502
-0.375072873
-0.375072873
-0.391118342
-0.394796539
-0.427740391
-0.419264545
-0.420970376
-0.388026524
-0.356362045
-0.328322456
-0.335518928
-0.286369686
-0.247935192
-0.201611232
-0.171386048
-0.121330583
-0.104911964
-0.047500106
-0.002082368
0.058901073
0.09499005
0.13043934
0.138222192
0.195527436
0.243557227
0.284443852
0.313336357
0.359713624
0.373573497
0.403585453
0.439727737
0.467287561
0.485198782
0.515797117
0.504655911
0.534241409
0.566172424
0.593945477
0.619479628
0.634672181
0.671560766
0.688299228
0.717511576
0.744591635
0.773430833
0.818048962
0.828870325
0.863733236
0.867571355
0.846408395
0.75957096
0.614735287
0.406517349
0.175857078
-0.070262282
-0.314249354
-0.532915504
-0.716398899
-0.860541578
-0.958946677
-0.997167942
-0.985600279
-0.98901194
-0.96193188
-0.917846822
-0.848867301
-0.794067495
-0.733137361
-0.696995077
-0.638357153
-0.5854231
-0.526518639
-0.491922264
-0.452581548
-0.411694922
-0.377098547
-0.360679928
-0.349272187
-0.33701153
-0.343355087
-0.339623583
-0.363771746
-0.393996931
-0.404178607
-0.402579391
-0.404071992
-0.393517166
-0.386853765
-0.397781742
-0.371074833
-0.323204964
-0.288288746
-0.257956947
-0.212006137
-0.161790751
-0.127567526
-0.077671983
-0.029055813
0.008952223
0.064391715
0.094510285
0.129533118
0.182733707
0.217010239
0.272396424
0.310724304
0.345214064
0.38018359
0.413020828
0.43834175
0.47016615
0.490529502
0.51649011
0.535520782
0.56473313
0.585043174
0.602421323
0.621825145
0.638403685
0.659246802
0.695229165
0.724654741
0.74144651
0.764795066
0.800830735
0.838945386
0.860641418
0.895770865
0.932019764
0.958353523
0.999613298
1.024507763
1.052760581
1.098818005
1.151432215
1.186614969
1.206978321
1.21081644
1.178565582
1.086504041
0.937190563
0.711434555
0.462863063
0.198246104
-0.072501185
-0.310784386
-0.510313249
-0.657547746
-0.759897578
-0.817256129
-0.819654953
-0.802969798
-0.770025946
-0.723915215
-0.669701789
-0.645766854
-0.559569106
-0.489683362
-0.434403791
-0.379870522
-0.334026326
-0.297457585
-0.252786148
-0.207101874
-0.180235043
-0.162803588
-0.154221128
-0.154167821
-0.170906283
-0.205182815
-0.230503737
-0.264300504
-0.281838574
-0.303001534
-0.308438869
-0.317074636
-0.313716282
-0.294792224
-0.263074438
-0.24702897
-0.227678455
-0.202357533
-0.173944793
-0.138815346
-0.078524899
-0.035399371
0.005433947
0.038910871
0.092804454
0.139661487
0.178202595
0.215570945
0.256244341
0.289561344
0.314562422
0.338710586
0.359073937
0.384661395
0.405824355
0.432691186
0.45262808
0.466647875
0.493088248
0.489303436
0.51382475
0.535307553
0.573742047
0.5889346
0.621292073
0.651997022
0.666869732
0.6947494
0.729239161
0.751148421
0.798005454
0.809413195
0.784998496
0.729665618
0.627742245
0.465581731
0.25970931
0.018174369
-0.234501777
-0.491549114
-0.694542946
-0.84908053
-0.966676221
-1.043545209
-1.077128747
-1.069345896
-1.066254078
-1.005643787
-0.954522179
-0.903773721
-0.842363822
-0.788896696
-0.731484838
-0.687506395
-0.644007717
-0.601681797
-0.555837601
-0.511592622
-0.488297374
-0.461430544
-0.444105702
-0.438455139
-0.457805654
-0.469160088
-0.484885713
-0.515164205
-0.525292574
-0.534621334
-0.55738351
-0.56330061
-0.565379591
-0.555730987
-0.534621334
-0.499971652
-0.46340291
-0.431418588
-0.384721477
-0.345753911
-0.294632303
-0.247935192
-0.20374352
-0.154967429
-0.114400647
-0.072874335
-0.023138714
0.024038162
0.050585149
0.094403671
0.123882554
0.171752423
0.197713032
0.233642087
0.248354875
0.264133807
0.298623568
0.313016513
0.333326558
0.358967323
0.379863747
0.397401817
0.416165953
0.447937046
0.481520585
0.523313432
0.525179185
0.553965075
0.582537736
0.625663264
0.666443275
0.686113633
0.7139933
0.72353529
0.715485902
0.673746362
0.550446799
0.354382904
0.127507444
-0.122769878
-0.394263467
-0.650457888
-0.855690623
-1.031817624
-1.160181371
-1.240142177
-1.278683285
-1.281295338
-1.240302098
-1.199522087
-1.134220763
-1.069878968
-1.013160103
-0.945993026
-0.899509144
-0.862247409
-0.822213699
-0.766241135
-0.713573618
-0.661225943
-0.617514036
-0.578279934
-0.565432898
-0.565859356
-0.55567768
-0.55834304
-0.568471409
-0.57625426
-0.591819964
-0.596777534
-0.595977926
-0.591766657
-0.571296691
-0.555091301
-0.540165284
-0.504875915
-0.467454258
-0.436109622
-0.390691884
-0.342182329
-0.283331176
-0.235567921
-0.191376249
-0.13950834
-0.099154786
-0.042329307
0.003354966
0.046427187
0.096002887
0.1516023
0.186465212
0.218769377
0.260615532
0.296171437
0.331087655
0.364831115
0.415366345
0.45492029
0.473311275
0.482693343
0.498312354
0.51649011
0.541491189
0.568517941
0.596237687
0.613189378
0.652530094
0.682275514
0.723695211
0.761596633
0.793474341
0.823219761
0.872848768
0.897370081
0.900461899
0.846408395
0.743685413
0.579072768
0.352037387
0.099094705
-0.171066204
-0.417505408
-0.630307765
-0.809473277
-0.938530018
-1.019556967
-1.055645944
-1.051114832
-1.036881809
-0.983041533
-0.906225852
-0.846255248
-0.778555099
-0.703072098
-0.651257496
-0.596724227
-0.543843481
-0.49314833
-0.43957459
-0.38333549
-0.33834421
-0.30326807
-0.272136663
-0.259342934
-0.241911478
-0.255718044
-0.273789186
-0.302095311
-0.31318321
-0.326563318
-0.342928629
-0.339836812
-0.334132941
-0.321445826
-0.31222368
-0.292340093
-0.252892762
-0.20699526
-0.165362334
-0.121117354
-0.065624555
-0.02836282
0.010924589
0.045947422
0.115086866
0.152028758
0.202830523
0.249687555
0.298516954
0.363871586
0.384341552
0.423788883
0.462756449
0.484719017
0.522673746
0.561801234
0.563880214
0.591973111
0.624437198
0.664364294
0.689045529
0.68654009
0.714366451
0.751308343
0.780360769
0.801363807
0.835587032
0.856963221
0.887988014
0.88596234
0.861867484
0.7946471
0.649704813
0.433490794
0.205655805
-0.04952578
-0.303961063
-0.547415063
-0.73239106
-0.879998708
-0.969768039
-1.020729726
-1.043865052
-1.028619192
-0.989971469
-0.910970193
-0.855317472
-0.795720019
-0.722049463
-0.677964405
-0.63116068
-0.587448773
-0.528704235
-0.479661607
-0.428380077
-0.380190365
-0.340369884
-0.287275909
-0.279386443
-0.282265032
-0.274109029
-0.285783307
-0.301295703
-0.310891
-0.31488904
-0.313876203
-0.312543523
-0.29068757
-0.269364688
-0.262488059
-0.228744599
-0.197506577
-0.161204372
-0.102832984
-0.049365858
-0.023458557
0.032620621
0.085021603
0.143392991
0.205495883
0.285563303
0.31594841
0.361632683
0.410835232
0.4512954
0.514357822
0.564786437
0.569424164
0.604127153
0.634405645
0.672946753
0.711861012
0.721989381
0.742299426
0.770445629
0.806427992
0.84859399
0.871835931
0.889267386
0.902274344
0.939696001
0.972639853
1.020456415
1.057238386
1.095832801
1.132721386
1.166091696
1.162520113
1.118381748
1.015498845
0.834414274
0.615694817
0.315895102
0.062312734
-0.182100796
-0.401619861
-0.582970968
-0.731271609
-0.78788386
-0.805528544
-0.803289642
-0.763415853
-0.715279448
-0.677537948
-0.612130009
-0.536487086
-0.477849162
-0.431258666
-0.355828973
-0.325177331
-0.275654938
-0.210886686
-0.157259639
-0.099101479
-0.066637392
-0.069036216
-0.036412208
-0.031827788
-0.019993589
-0.035505985
-0.043342144
-0.070315589
-0.075006623
-0.071328426
-0.052137833
-0.035932443
-0.006453559
0.00863238
0.050531842
0.090458937
0.136889512
0.173511561
0.236947134
0.271810045
0.331460806
0.383701866
0.437222298
0.500764485
0.553591924
0.620759001
0.654449154
0.7014128
0.741020053
0.783132744
0.826204964
0.844062878
0.887241713
0.921145094
0.96773559
0.996254945
1.01864397
1.049082384
1.075682678
1.104255339
1.125898064
1.140717467
1.1824037
1.180484641
1.202447209
1.239282487
1.27926289
1.313912572
1.34978832
1.359490231
1.410185382
1.463652507
1.501713851
1.5198383
1.52442272
1.505711891
1.384971075
1.198022711
0.967202518
0.694482864
0.420590451
0.181401027
-0.04456821
-0.208754397
-0.322298742
-0.39991403
-0.419797617
-0.417771944
-0.36579742
-0.305187129
-0.247935192
-0.177303147
-0.112268359
-0.067330386
-0.04094332
0.037098426
0.116472853
0.178895589
0.245849437
0.263920579
0.325650321
0.351824158
0.380876584
0.40363876
0.395536065
0.361632683
0.354542825
0.348412497
0.336098533
0.330554583
0.344840914
0.321865509
0.339083736
0.371814359
0.399960563
0.434183788
0.46483543
0.506095206
0.555137833
0.614468751
0.671027694
0.720496779
0.760210646
0.793794184
0.853498253
0.895024565
0.962991249
0.995082186
1.034582824
1.0699255
1.097432017
1.130002719
1.160281211
1.186241819
1.215347552
1.239868866
1.258792923
1.265882781
1.293762449
1.322175189
1.322654953
1.335715218
1.342805076
1.374362941
1.407200179
1.438118357
1.455283276
1.457948637
1.499421641
1.542014097
1.583007337
1.613605672
1.630663977
1.594628307
1.474260641
1.352133837
1.150525992
0.905472776
0.634245723
0.368882463
0.134543995
-0.046327347
-0.169360374
-0.2613153
-0.307799182
-0.318780466
-0.304813979
-0.26227483
-0.202090997
-0.129166742
-0.067703536
-0.000643074
0.047280102
0.107090785
0.162796813
0.195900587
0.251180157
0.299902941
0.346706666
0.38343533
0.39734851
0.417765169
0.411155076
0.401453164
0.400173792
0.389938808
0.370961444
0.368189469
0.370481679
0.365364188
0.386953605
0.406410734
0.433810637
0.472724896
0.498312354
0.520754687
0.558656109
0.621771838
0.67758448
0.738408
0.779934311
0.826844651
0.875407514
0.921784781
0.97061418
1.021256023
1.072057788
1.103349117
1.156176556
1.1757403
1.223130404
1.247864946
1.266842311
1.295894737
1.318496992
1.350534621
1.369938443
1.399417327
1.42948259
1.447607039
1.459387931
1.493771078
1.534977546
1.562963828
1.590043888
1.628851532
1.666273189
1.688235757
1.722832132
1.746180688
1.737544921
1.693726399
1.568987542
1.392594005
1.164812323
0.906059156
0.647732446
0.400227099
0.180708034
0.015455702
-0.104858657
-0.175703931
-0.217070321
-0.201877768
-0.180075122
-0.136469829
-0.086254443
-0.031881095
0.033260308
0.078731353
0.119564671
0.18134772
0.243823763
0.283590937
0.327356151
0.38114312
0.425281485
0.453854146
0.480347826
0.491755568
0.489303436
0.481947042
0.483439644
0.456999271
0.444898536
0.42709393
0.427627002
0.423255811
0.424055419
0.447937046
0.483652873
0.512225534
0.541970954
0.590320588
0.633126272
0.681369292
0.730358612
0.784198888
0.837292863
0.894811336
0.935804575
0.984847203
1.039113936
1.066940297
1.112464649
1.15228513
1.219452207
1.243440449
1.268974599
1.279156275
1.307035943
1.332037021
1.355812034
1.375002628
1.394513064
1.421379895
1.429909047
1.473461033
1.499368334
1.522183817
1.539988423
1.565682496
1.620962066
1.658170494
1.661795384
1.69980342
1.712490535
1.749005969
1.783549038
1.830725913
1.867081426
1.913671922
1.939525916
1.990434295
2.035052425
2.077698188
2.11026889
2.152061737
2.189749931
2.222907011
2.240924846
2.230103484
2.155953163
2.018580499
1.786534241
1.503153146
1.195997037
0.898702762
0.629021618
0.413500593
0.234175159
0.118765063
0.042322532
0.023078632
0.063325571
0.080170647
0.129693039
0.203203674
0.267012396
0.32852891
0.386367226
0.449802798
0.509133716
0.557749886
0.608071886
0.637124313
0.673000061
0.707063364
0.734569881
0.754080318
0.761969784
0.745231322
0.740753517
0.714366451
0.682701972
0.655248762
0.634725488
0.620385851
0.619852778
0.621398687
0.62896831
0.655781834
0.697521374
0.731478063
0.779081396
0.818741956
0.890493452
0.94124191
0.98985808
1.025360678
1.078561267
1.127817124
1.166358232
1.203886503
1.249997235
1.295148436
1.325213699
1.360556375
1.414716494
1.428203217
1.473194497
1.504059368
1.545052608
1.576983623
1.592389405
1.608434873
1.606249278
1.622827818
1.651560401
1.668512092
1.676401558
1.689088672
1.713663293
1.736532084
1.764838209
1.793144334
1.827047716
1.85156903
1.866761583
1.906475449
1.953705632
2.000136207
2.025190592
2.030681234
2.032227143
1.97796041
1.870119937
1.689355208
1.458694938
1.188640643
0.915814374
0.646346459
0.420910294
0.251766536
0.14227354
0.067803376
0.041363003
0.042535761
0.068549677
0.116419546
0.178415824
0.236947134
0.306886185
0.372507353
0.422083052
0.501297557
0.553911767
0.611963312
0.674492662
0.704451311
0.768046805
0.783079437
0.799284826
0.815543524
0.795873165
0.776949108
0.741819661
0.716445432
0.694909321
0.67225376
0.659246802
0.645813387
0.641921961
0.650770957
0.669375171
0.692190654
0.708182815
0.752587716
0.769912557
0.833188208
0.892145976
0.956381156
1.013046714
1.05009522
1.092687676
1.160227903
1.192958527
1.23427161
1.271000273
1.313432807
1.338700422
1.383798316
1.439184501
1.450912086
1.47218166
1.4887602
1.489986266
1.503472989
1.51679979
1.541214489
1.552568923
1.574424877
1.584819782
1.608648102
1.632103272
1.655451827
1.662648299
1.684077795
1.719153935
1.739250751
1.751298179
1.713450065
1.625493178
1.485135311
1.254741576
1.02855911
0.769965864
0.515797117
0.295691672
0.101760065
-0.079164585
-0.183060325
-0.227998298
-0.228584677
-0.210406921
-0.186152143
-0.117812308
-0.075699617
-0.011037979
0.049678927
0.121003965
0.156506563
0.214558108
0.25379221
0.290041109
0.33481916
0.38380848
0.431251891
0.438181828
0.46025101
0.466434646
0.457798879
0.430665512
0.400280406
0.37160113
0.346706666
0.312376827
0.287695592
0.284443852
0.2884952
0.296917738
0.307046107
0.322185352
0.337591134
0.378637681
0.423415732
0.48466571
0.516596725
0.569317549
0.609191338
0.653649546
0.694003099
0.704877769
0.76127679
0.798112068
0.847794382
0.873914912
0.910323732
0.905632698
0.94945122
0.983141372
0.983301294
1.014912466
1.02264201
1.034316288
1.068272977
1.073763619
1.083358916
1.094233585
1.118594977
1.14866024
1.144555586
1.160974204
1.172435253
1.176433293
1.209910217
1.242427612
1.245999194
1.297600568
1.322228496
1.34253854
1.359863382
1.378840746
1.327399295
1.217852991
1.035755583
0.778495017
0.505988591
0.22004875
-0.049739009
-0.296817898
-0.497839364
-0.642461808
-0.729032707
-0.767787044
-0.772851228
-0.761923251
-0.715705906
-0.666983121
-0.601202032
-0.566872193
-0.508820648
-0.4359497
-0.376032403
-0.333066797
-0.27485533
-0.207315103
-0.171972427
-0.143612994
-0.115733327
-0.088120195
-0.096062969
-0.110455914
-0.126128232
-0.15512735
-0.175863853
-0.202464147
-0.230077279
-0.28573
-0.27618801
-0.28114558
-0.267498936
-0.245056603
-0.221654741
-0.163283353
-0.123889329
-0.074953316
-0.0481931
-0.01082475
0.039017486
0.084168687
0.117059232
0.153148209
0.208054629
0.260935375
0.302568301
0.347293045
0.383541944
0.416645718
0.436316076
0.476563015
0.505722055
0.544689621
0.561854541
0.581151749
0.598423283
0.620172622
0.634618874
0.628648467
0.656474827
0.675025734
0.698161061
0.719750478
0.73648894
0.732650822
0.771405159
0.801043964
0.826258272
0.85317841
0.88996038
0.917680126
0.938736472
0.942894434
0.904086789
0.79997782
0.638297071
0.440527345
0.175483928
-0.089346261
-0.34367493
-0.566285813
-0.753127563
-0.873175386
-0.981122473
-1.004950793
-1.023395086
-1.010494743
-0.988532175
-0.927548734
-0.87232247
-0.796039862
-0.737295323
-0.683614969
-0.63345289
-0.601788411
-0.534034955
-0.492455336
-0.440267584
-0.398954501
-0.380723437
-0.394050238
-0.374966259
-0.367396636
-0.389092668
-0.411215158
-0.437122459
-0.476889633
-0.493468173
-0.514044754
-0.517882872
-0.51697665
-0.50343662
-0.512712074
-0.476303253
-0.435523242
-0.397195363
-0.350818096
-0.305453665
-0.295698447
-0.268405159
-0.209447391
-0.160458071
-0.11871853
-0.071275119
-0.039930483
0.000582992
0.043655213
0.075213077
0.123349482
0.150429542
0.158958694
0.206881871
0.241158403
0.261308526
0.300009556
0.307952329
0.301928615
0.336311761
0.35464944
0.378957524
0.402732537
0.42917291
0.457532343
0.482693343
0.504282761
0.529123918
0.543463555
0.554018382
0.506894814
0.450495792
0.326503236
0.122763103
-0.124049251
-0.384401634
-0.631373909
-0.853664949
-1.035655743
-1.186301901
-1.280922188
-1.322928264
-1.338707197
-1.301871919
-1.268128459
-1.206665253
-1.157462704
-1.102396362
-1.068599595
-0.985067206
-0.92152502
-0.870829869
-0.814164311
-0.759684349
-0.743958724
-0.678337556
-0.636384786
-0.606319523
-0.590007519
-0.584303648
-0.601468568
-0.598643286
-0.589314525
-0.600402424
-0.635478564
-0.655841916
-0.643154801
-0.653443092
-0.645766854
-0.625030352
-0.598803208
-0.56196793
-0.526305411
-0.48856391
-0.43994774
-0.40124671
-0.354602907
-0.296178212
-0.262488059
-0.191536171
-0.148197414
-0.094037295
-0.055762723
-0.021699419
0.031021405
0.070788579
0.10357251
0.138595343
0.16743454
0.201764379
0.228897746
0.256617492
0.286789369
0.31594841
0.359073937
0.361419454
0.380503433
0.403372224
0.42784023
0.442499711
0.479441604
0.511106083
0.542130875
0.572622596
0.623904126
0.648212211
0.667136268
0.701199571
0.717031811
0.688992222
0.610950475
0.458705101
0.237693434
-0.014929404
-0.278800063
-0.533875033
-0.770878862
-0.933732369
-1.072650942
-1.146161576
-1.196643498
-1.193018609
-1.149733159
-1.115030169
-1.048449472
-0.986080043
-0.917260443
-0.849880138
-0.80179704
-0.727113647
-0.682175674
-0.628761856
-0.580305608
-0.534994485
-0.479501686
-0.446877677
-0.418998009
-0.406524124
-0.404338528
-0.4167058
-0.418251708
-0.437175766
-0.438721675
-0.448263664
-0.459191641
-0.452048476
-0.447997128
-0.439894433
-0.399647494
-0.368249551
-0.324590951
-0.28077243
-0.252839455
-0.191536171
-0.161524215
-0.112481587
-0.042702458
0.018227676
0.055862562
0.103092745
0.151762222
0.200911464
0.260562225
0.305873348
0.345160757
0.388232978
0.429599368
0.462223377
0.504655911
0.541171346
0.567558412
0.589201136
0.627315787
0.64842544
0.677051408
0.691231124
0.724388205
0.752587716
0.776735879
0.799817899
0.827857488
0.861014568
0.887721478
0.930313933
0.962085027
0.990870917
1.020083265
1.060543432
1.095992723
1.127390666
1.176166757
1.199088855
1.232086014
1.235870826
1.280648877
1.308528544
1.307195864
1.251596451
1.118861513
0.901421429
0.658660423
0.392017789
0.120577508
-0.124315787
-0.333066797
-0.492455336
-0.569910703
-0.640969206
-0.663251617
-0.636224865
-0.602161562
-0.542031036
-0.463296296
-0.395862683
-0.316861407
-0.240205648
-0.180181736
-0.130979187
-0.063279038
-0.00986522
0.049945463
0.088166728
0.094297056
0.115779859
0.154320968
0.160877754
0.16055791
0.150216313
0.123509404
0.113327728
0.105864719
0.099148012
0.086940662
0.08774027
0.084381916
0.107890393
0.132678243
0.150163006
0.176496764
0.225646006
0.277940373
0.321598973
0.376985158
0.427520387
0.474484034
0.508280801
0.550873257
0.598956355
0.647412603
0.705890605
0.735422796
0.786224562
0.823006532
0.856003691
0.919332649
0.936231033
0.973066311
0.996841324
1.030211633
1.056172242
1.086770577
1.086663962
1.114063865
1.147647403
1.172222024
1.190506395
1.216520311
1.248771169
1.279209582
1.295894737
1.336514826
1.353093367
1.391634475
1.426017622
1.461360298
1.483482787
1.482150107
1.443982149
1.357517865
1.193491599
0.962191641
0.707756358
0.449323033
0.205869034
-0.013330188
-0.173198493
-0.274162337
-0.35092471
-0.401939704
-0.395756068
-0.365211041
-0.324857487
-0.256890803
-0.189243961
-0.125701774
-0.055336265
-0.003628277
0.037364962
0.110928904
0.174044633
0.212958892
0.253259138
0.322132045
0.35864748
0.359287166
0.36893577
0.366163796
0.355822198
0.341695789
0.32986159
0.300755856
0.288335278
0.280552426
0.265733024
0.286469526
0.294572221
0.311523912
0.33785767
0.356568499
0.391964482
0.442019947
0.490049737
0.534507945
0.585043174
0.627102558
0.646719609
0.701199571
0.752534409
0.802376644
0.857656215
0.887401634
0.929354404
0.96469708
0.995508644
1.056918542
1.072644168
1.095939416
1.123712469
1.162520113
1.185442211
1.200954607
1.229633883
1.249144319
1.260925211
1.290617324
1.319882979
1.344191064
1.378414289
1.402722374
1.427989988
1.466051332
1.485774997
1.503846139
1.553155303
1.559925318
1.544039771
1.46988945
1.329424968
1.137678956
0.89854284
0.649811427
0.387380063
0.152401908
-0.031241409
-0.170533132
-0.274002415
-0.315688648
-0.343088551
-0.325443867
-0.290794184
-0.234555084
-0.178902363
-0.119997903
-0.063492267
-0.003041898
0.044348206
0.095149971
0.128786817
0.168927141
0.215837481
0.269197992
0.303527831
0.353529988
0.358114408
0.351451007
0.375972321
0.35672842
0.338870507
0.311204068
0.28982788
0.275061784
0.235667761
0.238759578
0.258803087
0.274262176
0.295318522
0.317707547
0.338923814
0.40534459
0.439247972
0.478162231
0.521820831
0.576620636
0.631846899
0.686113633
0.727266794
0.778654939
0.83334813
0.867251511
0.896837009
0.928501488
0.978716874
1.029571947
1.047803011
1.065660924
1.077281894
1.125578221
1.162306884
1.19823594
1.219612128
1.23826965
1.250796843
1.260392139
1.27830336
1.297653875
1.336941284
1.357198021
1.375429085
1.399044176
1.436039376
1.452298073
1.47180851
1.502033694
1.543506699
1.574424877
1.596120909
1.582634186
1.522397046
1.393233691
1.22302379
0.986286497
0.719110792
0.464195743
0.227565066
0.012470498
-0.150329702
-0.236047686
-0.291220642
-0.322885121
-0.317074636
-0.299110108
-0.251240239
-0.196920198
-0.135670221
-0.074420244
-0.019087366
0.036405433
0.06849637
0.124042476
0.163223271
0.226925379
0.286043068
0.319146842
0.345800444
0.375172713
0.386846991
0.383382022
0.375012791
0.337111369
0.320746058
0.290947331
0.272449731
0.246595737
0.223567025
0.233908623
0.252512837
0.255657962
0.281671878
0.323304804
0.352197308
0.398574575
0.448576733
0.476776243
0.513504907
0.546075608
0.600715492
0.646399766
0.69245719
0.726520493
0.772684532
0.815650138
0.836919712
0.860108346
0.901528043
0.947745389
0.959579588
0.987032798
1.00606347
1.030478169
1.059264059
1.066353918
1.08117332
1.085704433
1.110119132
1.119074742
1.163479643
1.177126287
1.189227022
1.204952647
1.234378224
1.258419773
1.293762449
1.316204782
1.331024184
1.316098167
1.278729817
1.21444133
1.030318248
0.828017409
0.578379774
0.313976043
0.081769863
-0.123729407
-0.288875125
-0.431311973
-0.527691398
-0.550560188
-0.565219669
-0.566499042
-0.541711192
-0.484672484
-0.425821331
-0.362065916
-0.296124905
-0.239246118
-0.174051408
-0.118451994
-0.079164585
-0.029269042
0.026117142
0.071748109
0.124682162
0.13731597
0.147710874
0.135823368
0.131292256
0.118018762
0.113167806
0.074466776
0.056768785
0.03645874
0.026223757
0.030701562
0.058261386
0.076758986
0.083155851
0.107463935
0.152508523
0.206295491
0.270157522
0.301822001
0.335405539
0.378957524
0.413820436
0.460144396
0.528164388
0.575181342
0.611217011
0.651783794
0.68387473
0.713566843
0.774017212
0.793847492
0.822047002
0.850033284
0.872902075
0.911070033
0.894758028
0.913682086
0.953929025
0.972639853
1.014965773
1.043911585
1.061556269
1.090662002
1.110705511
1.136826041
1.157989001
1.188747257
1.184642603
1.181390863
1.087197034
0.948598304
0.763569
0.510626318
0.239772415
-0.012797116
-0.237060523
-0.430938823
-0.572042991
-0.681322759
-0.708136283
-0.743852109
-0.71352031
-0.687239859
-0.628868471
-0.586702472
-0.498692279
-0.436056314
-0.389199282
-0.330241515
-0.294792224
-0.233329018
-0.183859933
-0.131992024
-0.075379774
-0.039237489
-0.01311696
0.006446784
0.017481375
0.006819935
0.000263149
-0.012743809
-0.03502622
-0.0481931
-0.082629553
-0.086734208
-0.070208975
-0.040730091
-0.024578008
0.008046
0.024624541
0.082249628
0.115993088
0.145205436
0.193181919
0.240838559
0.271383587
0.340576338
0.393243855
0.431571735
0.481627199
0.524859341
0.547674825
0.596504223
0.644267478
0.694322942
0.729452389
0.7694861
0.815650138
0.840491295
0.867731276
0.890013687
0.925143135
0.944067192
0.96832197
0.977064351
1.000999286
1.038261021
1.072964011
1.082026235
1.131815164
1.152498359
1.184269452
1.200048385
1.217586455
1.251489836
1.31108729
1.33758097
1.364714337
1.409492388
1.429589204
1.41860792
1.348668869
1.263910415
1.082506
0.858562437
0.578593003
0.314828958
0.039710479
-0.157632789
-0.320326375
-0.441920107
-0.521561069
-0.559729027
-0.573375671
-0.522520599
-0.470279539
-0.407590268
-0.329441907
-0.245269832
-0.204383207
-0.13129903
-0.062905888
0.015988774
0.071748109
0.121377116
0.157679321
0.202457373
0.246915581
0.267812005
0.271010437
0.272503038
0.223726947
0.215837481
0.188864036
0.175963692
0.169939978
0.160024838
0.138915186
0.161783976
0.184546152
0.205762419
0.231829642
0.262801127
0.279006517
0.335405539
0.388552821
0.444898536
0.497725975
0.550020341
0.570916765
0.631527056
0.688512457
0.751468265
0.790009373
0.830522848
0.860588111
0.892412512
0.93591119
0.976744508
1.020509722
1.029571947
1.041619375
1.087250341
1.100203992
1.132668079
1.149033391
1.17115588
1.19956862
1.21806622
1.242320997
1.259006152
1.285766368
1.311193905
1.347389496
1.373190183
1.413863579
1.450272399
1.474900327
1.511415762
1.518399006
1.513921201
1.462746285
1.338433886
1.159801446
0.930740391
0.672147145
0.42250951
0.20554919
0.003301659
-0.147291191
-0.247935192
-0.309771549
-0.328908835
-0.307799182
-0.247881885
-0.205555965
-0.136149986
-0.061733129
0.00863238
0.084701759
0.15922523
0.212852277
0.281511956
0.360459925
0.419790843
0.470912451
0.512651992
0.532162428
0.54623553
0.553112159
0.550660028
0.523100204
0.496180066
0.469100006
0.448203582
0.425494713
0.422776046
0.428959682
0.438768207
0.449749491
0.478108924
0.504549297
0.538505985
0.564893051
0.618253562
0.667456111
0.714686294
0.775403199
0.82839056
0.867624662
0.918533041
0.97269316
1.017471212
1.059797131
1.100257299
1.137838878
1.173288168
1.202447209
1.227128444
1.255754413
1.280382341
1.305596648
1.322654953
1.363541579
1.371431045
1.401336386
1.418821149
1.449046334
1.46418558
1.492438398
1.511309148
1.535030853
1.52213051
1.500914243
1.441476711
1.320309436
1.109212909
0.884096588
0.654822304
0.398947726
0.162530277
-0.0111979
-0.156619952
-0.252946069
-0.303747835
-0.304867286
-0.279173214
-0.236474143
-0.168400844
-0.082949396
-0.005440722
0.075213077
0.159864917
0.240518716
0.292386625
0.337004755
0.378317838
0.451615243
0.514944201
0.542823869
0.568198098
0.5822712
0.603114316
0.580991827
0.555670905
0.546555373
0.528537538
0.505562134
0.484185945
0.485465318
0.50524229
0.509933324
0.512705299
0.549220733
0.571556452
0.599436119
0.644427399
0.688938915
0.743685413
0.801257193
0.849233676
0.891932747
0.933938823
0.987246027
1.039966852
1.078454653
1.143862592
1.170249658
1.1949842
1.237843192
1.265776167
1.305490034
1.328358824
1.371537659
1.38752982
1.402135994
1.435399689
1.450912086
1.469569607
1.499741484
1.51050954
1.520904444
1.55587397
1.577196852
1.583806945
1.606675735
1.648468583
1.664887202
1.663501215
1.641911797
1.553475146
1.407786558
1.197969404
0.949930984
0.68350158
0.419577614
0.187104898
-0.01082475
-0.149903244
-0.231250037
-0.276241317
-0.280559201
-0.262434752
-0.216057484
-0.158272475
-0.066957235
0.011457661
0.098934783
0.165995245
0.241318324
0.302355073
0.379117446
0.425761249
0.480667669
0.532109121
0.569477471
0.593465713
0.600822107
0.606792514
0.592026418
0.574008583
0.553005545
0.546448759
0.514624358
0.494687464
0.49036958
0.487490991
0.501350864
0.525339106
0.551033178
0.584776638
0.604127153
0.620812308
0.667935876
0.728919317
0.779241318
0.839211922
0.888414471
0.923170768
0.974079148
1.011074347
1.065501002
1.103029274
1.14199684
1.180271412
1.213055342
1.255914334
1.281075334
1.302664752
1.330651034
1.355119041
1.371537659
1.388542657
1.409332467
1.42681723
1.440517181
1.4695163
1.485295232
1.507204493
1.526501701
1.542120711
1.57703693
1.613712286
1.638180293
1.666859568
1.687915914
1.716328654
1.757161972
1.781683285
1.803699161
1.815799896
1.791545118
1.686210083
1.498408804
1.256980478
0.986819569
0.695922158
0.443086091
0.201764379
0.00863238
-0.130712651
-0.186098836
-0.196653662
-0.184233084
-0.152995062
-0.093983988
0.005967019
0.079637575
0.151389071
0.234974767
0.309285009
0.363445128
0.424535184
0.493781241
0.560308632
0.602314708
0.634672181
0.669108635
0.684407802
0.690857974
0.691391046
0.660153025
0.624490505
0.587068848
0.563347142
0.534827788
0.527471394
0.529017303
0.530829748
0.547301674
0.55252578
0.58264435
0.618893249
0.651037493
0.707063364
0.742086197
0.798005454
0.841450825
0.886068954
0.934098745
0.976371358
1.026640051
1.063422021
1.110225746
1.148447011
1.19461105
1.215560781
1.251916294
1.256927171
1.286939127
1.309168231
1.34941517
1.368605763
1.390621638
1.419300914
1.424791556
1.436519141
1.451125315
1.469782836
1.48742752
1.502406845
1.530339819
1.570480144
1.583433794
1.594255157
1.612219684
1.628478382
1.64452385
1.614725123
1.525808707
1.383904931
1.173394783
0.909470817
0.657114514
0.396335673
0.154587504
-0.047500106
-0.185085999
-0.266539406
-0.313876203
-0.322245434
-0.295112068
-0.261635144
-0.201877768
-0.108963312
-0.025857381
0.042215918
0.121003965
0.180121654
0.235561146
0.315521952
0.356888342
0.414406815
0.465421809
0.511692462
0.528271002
0.526511865
0.524166348
0.505988591
0.474590648
0.447563896
0.416858946
0.39964072
0.375919014
0.356248656
0.351824158
0.343508234
0.377624844
0.416059338
0.441753411
0.475070413
0.503802996
0.54490285
0.586589083
0.658287272
0.704131468
0.755306383
0.793580956
0.854564397
0.891666211
0.935964497
0.978397031
1.013206635
1.036075426
1.056918542
1.087356956
1.082239464
1.11758214
1.139118251
1.174247698
1.206765092
1.235071218
1.257033786
1.261191747
1.290084252
1.312633199
1.332943244
1.359756767
1.398937562
1.408532859
1.421433202
1.409758924
1.323347947
1.22073158
1.032770379
0.799071598
0.529017303
0.267865312
0.02883581
-0.164349497
-0.293459544
-0.41478674
-0.492082186
-0.505408987
-0.505249065
-0.469853082
-0.438028681
-0.377098547
-0.313876203
-0.253585756
-0.196547048
-0.140094719
-0.099901087
-0.055123036
0.008472458
0.066790539
0.120844044
0.164822487
0.197872953
0.217223468
0.222660803
0.215251102
0.212212591
0.195154286
0.20288383
0.183160165
0.170739586
0.15885208
0.148457175
0.151868836
0.166634932
0.179535275
0.193341841
0.213598578
0.256031113
0.299636405
0.368989077
0.409715781
0.452521466
0.508120879
0.546928524
0.591333424
0.662818385
0.697468067
0.73574264
0.778068559
0.813198007
0.855044162
0.895291101
0.923064154
0.965869838
0.989538237
1.005423784
1.035968811
1.049082384
1.078241424
1.109745981
1.12978949
1.135653282
1.153937653
1.177232901
1.212255734
1.231393021
1.259325995
1.290670631
1.333049858
1.358264166
1.386623598
1.423991948
1.44568798
1.455336584
1.444142071
1.328092288
1.186188512
0.979356561
0.707276593
0.450069334
0.186998284
-0.073567329
-0.277840534
-0.434830249
-0.51868248
-0.574228587
-0.578439856
-0.571349998
-0.519428781
-0.462176844
-0.401993011
-0.348845729
-0.262701288
-0.216270713
-0.142600158
-0.087747045
-0.023938322
0.041576232
0.069189363
0.096802495
0.129319889
0.154587504
0.159491766
0.175483928
0.167381233
0.126334686
0.108583387
0.120470893
0.126601222
0.100214156
0.099894313
0.093763984
0.117059232
0.135929982
0.150589463
0.180174961
0.216637089
0.256191034
0.299369869
0.342708626
0.397561739
0.464515587
0.50353646
0.570223772
0.60476684
0.63451226
0.678330781
0.727106873
0.760690411
0.816662975
0.835267189
0.863146857
0.898702762
0.933832209
0.953715796
1.008142451
1.012673563
1.032663765
1.059957053
1.084958132
1.102282973
1.137465727
1.140770774
1.159854753
1.174354312
1.198342554
1.226488758
1.266895618
1.276650837
1.286992434
1.328998511
1.357517865
1.377614681
1.419300914
1.437212134
1.450112478
1.379693662
1.240348631
1.034209674
0.766714125
0.496979674
0.254805047
0.016521846
-0.180341658
-0.349218879
-0.45615313
-0.525612417
-0.544962932
-0.550986646
-0.514417904
-0.454767143
-0.398687965
-0.317714322
-0.239299425
-0.169466988
-0.113601039
-0.042435922
-0.009012305
0.066310774
0.123456097
0.165248944
0.215304409
0.228204752
0.216263938
0.233375551
0.22175458
0.198565947
0.117112539
0.103519202
0.076545757
0.063112342
0.055542719
0.05532949
0.060713518
0.077132137
0.084328609
0.07057535
0.116099703
0.159491766
0.213012199
0.270050907
0.314189272
0.35235723
0.391804561
0.431891578
0.48599839
0.521980752
0.560948318
0.597943518
0.640855817
0.682222207
0.704931076
0.736862091
0.745231322
0.780787227
0.814957144
0.836333333
0.861867484
0.878979096
0.904886397
0.916507368
0.947478853
0.968108741
0.981382235
0.999293455
1.021096102
1.041459453
1.069285814
1.066727068
1.041086303
0.969974493
0.853018488
0.660846018
0.422935968
0.160024838
-0.072874335
-0.301508932
-0.503223391
-0.653603013
-0.769546181
-0.82466583
-0.839751769
-0.830103165
-0.794600567
-0.734470041
-0.680576458
-0.613089538
-0.546348919
-0.483766262
-0.436589387
-0.379230835
-0.305720201
-0.259023091
-0.233169097
-0.180928037
-0.142280314
-0.137056208
-0.119571446
-0.108696776
-0.119624753
-0.134817306
-0.151022696
-0.168081001
-0.191322942
-0.21195283
-0.224693251
-0.245269832
-0.228264834
-0.224213487
-0.209820542
-0.195534211
-0.160617992
-0.134230927
-0.097448956
-0.043981831
-0.006666788
0.046107344
0.085767904
0.1390218
0.180921262
0.218662763
0.268504998
0.299583098
0.337751056
0.376612008
0.414833273
0.417232097
0.464035822
0.489090208
0.505135676
0.531735971
0.559135873
0.574861498
0.587175463
0.603380852
0.622411524
0.631793592
0.645067086
0.687073162
0.691391046
0.712020934
0.736435633
0.768046805
0.793954106
0.821940388
0.838359007
0.821407316
0.77348414
0.647519217
0.442659633
0.205122733
-0.074793394
-0.356681888
-0.602588019
-0.820454561
-0.990131391
-1.128410278
-1.190779706
-1.230227037
-1.240781863
-1.226442225
-1.177399598
-1.098824779
-1.047703171
-0.995622033
-0.929787636
-0.884423206
-0.827757648
-0.784152355
-0.730525308
-0.686600172
-0.641448971
-0.601148725
-0.571083462
-0.563833682
-0.559355877
-0.578439856
-0.590220748
-0.627962248
-0.649338437
-0.690331677
-0.701686111
-0.710961565
-0.712400859
-0.702698948
-0.714959605
-0.693796645
-0.654775772
-0.631587138
-0.6172475
-0.568524716
-0.530356758
-0.485258864
-0.436642694
-0.389519126
-0.337597909
-0.293512852
-0.253105991
-0.227251997
-0.179382128
-0.132951554
-0.091905007
-0.047500106
0.009165452
0.043122141
0.065831009
0.073613861
0.092377997
0.111142133
0.132944779
0.146058351
0.161890591
0.18497261
0.193235226
0.206242184
0.227245222
0.250753699
0.263973886
0.289348115
0.325010634
0.347719503
0.369948607
0.366696868
0.347826117
0.280072661
0.150642771
-0.028949199
-0.270110989
-0.551146568
-0.805581851
-1.060763436
-1.268341687
-1.450972168
-1.580935131
-1.649221659
-1.674862424
-1.663188146
-1.621288684
-1.574005194
-1.52032484
-1.458328562
-1.390095341
-1.331670646
-1.262637817
-1.200481617
-1.137685731
-1.094133745
-1.035069364
-0.981655545
-0.939649469
-0.923337464
-0.905159708
-0.916300914
-0.929894251
-0.953669263
-0.979683179
-1.008895527
-1.031497781
-1.057724925
-1.067266915
-1.072064563
-1.064601555
-1.05783154
-1.032350696
-1.017477986
-0.992583522
-0.954095721
-0.908251526
-0.858142754
-0.810646036
-0.749129522
-0.706910217
-0.659093655
-0.611490322
-0.570390468
-0.512285616
-0.476036717
-0.433924026
-0.401939704
-0.370168611
-0.347726278
-0.32384465
-0.304227599
-0.267392322
-0.253745677
-0.240418877
-0.22224112
-0.202464147
-0.171386048
-0.175970467
-0.146065126
-0.143772916
-0.133324704
-0.117066007
-0.078418284
-0.064451797
-0.047020341
-0.07202142
-0.133378011
-0.245856211
-0.419797617
-0.666130206
-0.931653388
-1.203626742
-1.444895146
-1.648688587
-1.810742486
-1.925193053
-1.980899081
-2.003074878
-1.988415396
-1.951793347
-1.869060567
-1.804452236
-1.751038418
-1.720546697
-1.643251252
-1.575177953
-1.519205389
-1.463072903
-1.401129932
-1.350168245
-1.311147372
-1.268075151
-1.264503569
-1.232252711
-1.219192446
-1.230760109
-1.252402834
-1.271220277
-1.296114741
-1.287798817
-1.312106902
-1.322608421
-1.338280739
-1.341958936
-1.348995487
-1.321915427
-1.281401952
-1.239662412
-1.200321695
-1.148240557
-1.071798027
-1.040719927
-0.999726688
-0.956068088
-0.915767842
-0.833194983
-0.816296599
-0.757765289
-0.716132363
-0.685374107
-0.645287089
-0.600775574
-0.558076504
-0.51964201
-0.490536277
-0.464149211
-0.445065232
-0.434883556
-0.414200361
-0.399807416
-0.370115303
-0.338983896
-0.307426032
-0.277414076
-0.259769392
-0.230183893
-0.20928747
-0.182420639
-0.149583401
-0.121170662
-0.087054051
-0.068822987
-0.051124996
-0.095529897
-0.196973505
-0.346446905
-0.570603697
-0.808300519
-1.094293667
-1.345583826
-1.570860069
-1.752264484
-1.895341019
-1.961868409
-1.987029409
-1.98185861
-1.945556405
-1.895874091
-1.855573845
-1.7849418
-1.704341307
-1.630564137
-1.570326997
-1.497456049
-1.412910824
-1.369625375
-1.335988529
-1.280069272
-1.227561677
-1.191899157
-1.172548642
-1.169563439
-1.170949426
-1.170576276
-1.196110426
-1.21471464
-1.218712681
-1.249151094
-1.251923069
-1.25762694
-1.251123461
-1.226602147
-1.202987056
-1.1729751
-1.122546485
-1.088056724
-1.050421838
-0.996741484
-0.942634672
-0.889167547
-0.818642116
-0.785378421
-0.709042505
-0.667729422
-0.615861513
-0.579239464
-0.549494044
-0.508340883
-0.459351563
-0.417985172
-0.402152933
-0.353323534
-0.311637301
-0.278959985
-0.259662777
-0.234981542
-0.227251997
-0.192708929
-0.167814465
-0.154221128
-0.142227007
-0.085454835
-0.085561449
-0.06573117
-0.035719214
-0.005334108
0.025957221
0.07249441
0.079904111
0.132251785
0.172232188
0.214184958
0.256031113
0.289348115
0.271117051
0.247395345
0.145098821
-0.045207896
-0.257743718
-0.527211633
-0.810965879
-1.084165298
-1.283960698
-1.446654284
-1.564516512
-1.628645078
-1.657644197
-1.622248214
-1.581414895
-1.52432288
-1.461580301
-1.378527678
-1.31327966
-1.216687007
-1.144988818
-1.102982741
-1.052820663
-1.000206452
-0.958466912
-0.903560492
-0.847001549
-0.815496991
-0.789376461
-0.785111885
-0.801263968
-0.795666711
-0.806114923
-0.813098167
-0.817149514
-0.807927368
-0.837939324
-0.845029182
-0.828983714
-0.803342949
-0.786018107
-0.763522467
-0.718531187
-0.672900221
-0.621352155
-0.578919621
-0.516763421
-0.460364399
-0.393144015
-0.35492275
-0.298150578
-0.249747637
-0.184126469
-0.12559516
-0.069089524
-0.037371737
0.013696564
0.065937624
0.102133215
0.131345563
0.136036597
0.186145368
0.227724987
0.255977805
0.277300687
0.291107253
0.306672956
0.353423374
0.373093732
0.422989275
0.424428569
0.443619163
0.450016027
0.479068453
0.503643074
0.540691581
0.567131954
0.600448956
0.649864734
0.690058366
0.721722845
0.747416917
0.735316182
0.670068164
0.531522742
0.329541747
0.073453939
-0.195161061
-0.459244948
-0.693583416
-0.870243489
-1.017637908
-1.116576078
-1.161940509
-1.149306701
-1.123186172
-1.072171177
-1.006016938
-0.927868577
-0.856810074
-0.784845349
-0.715279448
-0.645820161
-0.599442894
-0.546082383
-0.482966654
-0.427633776
-0.393517166
-0.323151657
-0.321392519
-0.311477379
-0.308012411
-0.321232597
-0.329335292
-0.356415352
-0.386693844
-0.418624859
-0.431845045
-0.441333728
-0.440587427
-0.451728632
-0.421716677
-0.398314814
-0.352310697
-0.30193539
-0.263714125
-0.227785069
-0.180021815
-0.12138389
-0.047393492
0.010977897
0.065404552
0.088326649
0.153201516
0.218396227
0.25645757
0.30240838
0.335618768
0.359713624
0.391911175
0.454333911
0.493248169
0.514624358
0.548314511
0.55481799
0.587122155
0.613615836
0.635951554
0.644107556
0.675931957
0.68350158
0.710528332
0.733876887
0.770339015
0.807760672
0.853604867
0.887988014
0.899928827
0.904619861
0.847794382
0.736542248
0.56910432
0.34777281
0.118711756
-0.141907164
-0.390052198
-0.599549509
-0.752381262
-0.86432639
-0.92856157
-0.956387931
-0.948125314
-0.902654269
-0.839058775
-0.801690425
-0.717731579
-0.636064943
-0.578120013
-0.515057591
-0.433924026
-0.404018685
-0.373207121
-0.321125983
-0.253105991
-0.206728724
-0.165202412
-0.135723528
-0.125381931
-0.132365174
-0.147291191
-0.17266542
-0.191216327
-0.214031811
-0.230023972
-0.24836165
-0.288342053
-0.272829656
-0.259662777
-0.22186797
-0.194254838
-0.159072084
-0.112481587
-0.085028377
-0.035505985
0.021426109
0.076225914
0.13043934
0.183426701
0.230870112
0.280072661
0.325223863
0.372134202
0.413500593
0.456093048
0.487970756
0.519528621
0.569424164
0.595757922
0.620918923
0.630460912
0.671400845
0.695335779
0.72124308
0.745284629
0.769112949
0.797472382
0.81026611
0.820980858
0.846781545
0.876900115
0.899449062
0.93457851
0.952063273
0.981115699
1.008622216
1.041246225
1.065874153
1.101430058
1.13341438
1.165452009
1.188000957
1.171315802
1.089702473
0.935538039
0.720336858
0.45987786
0.174311169
-0.103739206
-0.350711481
-0.540698356
-0.692783808
-0.797106006
-0.857289839
-0.873655151
-0.851852504
-0.8170429
-0.762669552
-0.688146081
-0.606799288
-0.503863078
-0.45482045
-0.406044359
-0.354016528
-0.296551362
-0.254012214
-0.208541169
-0.168880609
-0.138282274
-0.113174581
-0.106031416
-0.110402606
-0.127194376
-0.154700893
-0.178902363
-0.186418679
-0.194627988
-0.21595087
-0.198092957
-0.213765275
-0.191376249
-0.185619071
-0.162270516
-0.136043371
-0.08460192
-0.04131647
0.007939386
0.049572312
0.112208277
0.169566828
0.215517638
0.260775454
0.31003131
0.370694908
0.417338711
0.452734695
0.494367621
0.538132835
0.571129994
0.61105709
0.629234846
0.665163902
0.69837429
0.723002218
0.743152341
0.767673655
0.779987619
0.80760075
0.843583113
0.862667092
0.879618783
0.907018685
0.918319813
0.936604183
0.961285419
0.992683362
1.011127654
1.061449655
1.07754843
1.11683584
1.144768814
1.168064062
1.20489934
1.234324917
1.291470239
1.311567055
1.326866223
1.296587731
1.200101692
1.028719032
0.800244356
0.548314511
0.261894905
-0.005014265
-0.244790067
-0.428646613
-0.583770576
-0.673326679
-0.720716783
-0.732124524
-0.705630844
-0.655255537
-0.597737064
-0.528437699
-0.451142253
-0.381309816
-0.315422112
-0.23748698
-0.183060325
-0.128846899
-0.071275119
-0.019140674
0.017321454
0.04733341
0.065990931
0.063858643
0.029848647
0.021052958
0.0072997
-0.012957038
-0.058268161
-0.07697899
-0.093397608
-0.112641509
-0.103312748
-0.088866496
-0.083589083
-0.07106189
-0.040037097
-0.001389375
0.040616702
0.080543798
0.140674323
0.1952609
0.243130769
0.287269134
0.337271291
0.379437289
0.431944885
0.474643955
0.519848464
0.556683742
0.600662185
0.629128232
0.667616033
0.699493741
0.728972625
0.759037888
0.746830538
0.791075517
0.818741956
0.843103348
0.871995852
0.899075912
0.900088749
0.918586349
0.951316972
0.972053474
0.994868957
1.007982529
1.030318248
1.049188998
1.083198994
1.101536672
1.095193115
1.114330401
1.09204799
1.025467292
0.871676009
0.661325783
0.417765169
0.145258743
-0.11568002
-0.361372922
-0.567405265
-0.711388022
-0.818428887
-0.867418208
-0.87823957
-0.869390574
-0.823972837
-0.772957843
-0.724288365
-0.667089736
-0.597257299
-0.542990565
-0.492402029
-0.436269543
-0.380030443
-0.338983896
-0.293832695
-0.249214565
-0.231356652
-0.192069243
-0.186152143
-0.181727645
-0.194308145
-0.225652781
-0.256570959
-0.273575957
-0.298523729
-0.328855528
-0.348419271
-0.348525886
-0.330934509
-0.32251197
-0.307052881
-0.283331176
-0.25427875
-0.214938033
-0.164562726
-0.121064047
-0.091371935
-0.032414167
0.010551439
0.0702022
0.116259624
0.150696078
0.206082263
0.245103136
0.282738022
0.323464725
0.342708626
0.381089813
0.411101768
0.44004758
0.462329991
0.478908532
0.508973795
0.535680704
0.55881603
0.559402409
0.567505104
0.588241607
0.582591043
0.6007688
0.621558609
0.65908688
0.685367332
0.70503769
0.738141464
0.755519612
0.789956066
0.814104229
0.813677772
0.849393598
0.871249552
0.870769787
0.836066797
0.727213487
0.546768602
0.298836797
0.011617583
-0.26456704
-0.515750584
-0.765228298
-0.964703855
-1.108739919
-1.200854767
-1.259172848
-1.283960698
-1.26924791
-1.232465939
-1.178678971
-1.126544525
-1.056445552
-1.013106796
-0.947325706
-0.901534818
-0.84545564
-0.801637118
-0.739960683
-0.669328638
-0.657334517
-0.628761856
-0.622471606
-0.604667
-0.627002719
-0.616128049
-0.653603013
-0.695022711
-0.722795764
-0.746250933
-0.74992913
-0.734843192
-0.753447406
-0.75355402
-0.749982438
-0.728552942
-0.699873666
-0.674872588
-0.641502278
-0.595178318
-0.555251222
-0.50210394
-0.462763224
-0.418358323
-0.365850727
-0.314089432
-0.267978701
-0.243190851
-0.203050527
-0.147770956
-0.125861696
-0.082736168
-0.03961064
-0.011357822
0.017108225
0.004154575
0.053250509
0.077718516
0.106557713
0.128147131
0.157039635
0.175643849
0.194088142
0.226605536
0.238706271
0.262001519
0.280125969
0.315628566
0.334552624
0.345427293
0.366057181
0.420057379
0.4387149
0.455666591
0.482266885
0.510573011
0.548740969
0.586162626
0.617507262
0.624757041
0.609831024
0.514464437
0.355075897
0.158159086
-0.088493346
-0.368622702
-0.655415458
-0.934318748
-1.140084555
-1.308855162
-1.43833836
-1.490366191
-1.522883586
-1.520111611
-1.479171679
-1.426450854
-1.362908667
-1.301765304
-1.227561677
-1.154797343
-1.094826739
-1.015292391
-0.969821346
-0.911556572
-0.851799197
-0.798491993
-0.761869944
-0.736335794
-0.734789885
-0.74918283
-0.755313158
-0.777542262
-0.797159313
-0.815870142
-0.843429966
-0.870776562
-0.894498267
-0.897750007
-0.912889253
-0.900841824
-0.881224773
-0.877066812
-0.84982683
-0.817895815
-0.776316196
-0.715226141
-0.677804484
-0.639423297
-0.574655044
-0.521294533
-0.470972533
-0.426940783
-0.389199282
-0.359134019
-0.306199966
-0.267072478
-0.232476103
-0.190523334
-0.16104445
-0.119251602
-0.108696776
-0.0859346
-0.061093443
-0.048406328
-0.030495108
-0.005494029
0.007353007
0.019986814
0.04045678
0.065457859
0.089925865
0.090139094
0.126867758
0.153148209
0.182413864
0.196113815
0.219195835
0.184706074
0.119671285
0.013056878
-0.167068164
-0.397088749
-0.640382827
-0.915767842
-1.165085634
-1.368879074
-1.531999118
-1.633442726
-1.70695336
-1.754716615
-1.740750128
-1.716335428
-1.661429008
-1.590157277
-1.52432288
-1.473521115
-1.387483288
-1.315305334
-1.239769026
-1.17164242
-1.121000576
-1.079261036
-1.022702092
-0.970780876
-0.909211055
-0.908731291
-0.900042216
-0.911290036
-0.924723452
-0.940129234
-0.959692977
-0.987785874
-1.008202533
-1.042479065
-1.040613313
-1.041786071
-1.025953832
-1.007509539
-0.968755202
-0.976271518
-0.957454075
-0.887461716
-0.827970877
-0.768480037
-0.711601251
-0.684627806
-0.618366952
-0.546348919
-0.497412906
-0.437548916
-0.413134217
-0.395009768
-0.34063642
-0.285463464
-0.239299425
-0.181034651
-0.140894327
-0.127141068
-0.119944596
-0.09718242
-0.072074727
-0.040463555
-0.013969875
-0.00586718
0.024571234
0.0450412
0.084861681
0.116472853
0.141473932
0.165089023
0.196966731
0.217703233
0.234495002
0.214025036
0.127454137
-0.028629356
-0.227251997
-0.467934022
-0.724075137
-0.986559808
-1.23092003
-1.449266337
-1.596873985
-1.688668989
-1.751678104
-1.756262524
-1.734086727
-1.710258407
-1.649808038
-1.575497796
-1.500974325
-1.41680225
-1.348142572
-1.259919149
-1.199628702
-1.154637422
-1.101010375
-1.04924908
-0.991250842
-0.941515221
-0.928668185
-0.917420365
-0.920298954
-0.93048063
-0.95031091
-0.989864855
-1.002392048
-1.014386169
-1.026220368
-1.033150304
-1.033310226
-1.021262798
-0.997114635
-0.978723649
-0.963051331
-0.921844863
-0.863793318
-0.813737853
-0.767360586
-0.72172962
-0.673060143
-0.624070822
-0.571083462
-0.522680521
-0.468680323
-0.41611942
-0.369902075
-0.332213881
-0.309078555
-0.249427794
-0.197719806
-0.146598198
-0.115733327
-0.083482469
-0.048512943
-0.016848464
0.004367803
0.026703522
0.054849725
0.058261386
0.090085787
0.112368198
0.139768101
0.169620135
0.191422781
0.216743703
0.24520975
0.279699511
0.313069821
0.353210145
0.390258652
0.443352627
0.4638759
0.475870021
0.426454243
0.306992799
0.144512442
-0.090678941
-0.357961261
-0.633346276
-0.880265244
-1.103409199
-1.26391719
-1.381139731
-1.448786572
-1.463765897
-1.476026554
-1.434233706
-1.380979809
-1.328792057
-1.245686126
-1.169190288
-1.116362849
-1.033203612
-0.963531096
-0.895457797
-0.832768525
-0.782286603
-0.737295323
-0.684894342
-0.640915899
-0.627962248
-0.620765776
-0.620925697
-0.644594096
-0.658347354
-0.690544905
-0.717358429
-0.724235058
-0.734043584
-0.727859948
-0.716132363
-0.694916096
-0.675512274
-0.65365632
-0.629668079
-0.580732066
-0.547681599
-0.491709035
-0.4107887
-0.352897077
-0.309878163
-0.272829656
-0.217070321
-0.156833181
-0.111948515
-0.055389572
-0.019353902
0.01433625
0.044934585
0.07915781
0.120684122
0.144565749
0.197766339
0.229750661
0.242970848
0.277300687
0.309285009
0.337591134
0.364457965
0.380983198
0.386420533
0.410035624
0.440100887
0.47912176
0.500817792
0.518942242
0.53898575
0.58760192
0.608445037
0.636857776
0.667882569
0.658553808
0.632060128
0.544529699
0.383541944
0.168820527
-0.065091483
-0.322405356
-0.580625451
-0.795186947
-0.99700802
-1.115829777
-1.187474659
-1.21967221
-1.229320814
-1.198082793
-1.131555403
-1.059484063
-0.995515418
-0.915234769
-0.829463479
-0.762296402
-0.695022711
-0.628815163
-0.563993604
-0.49048297
-0.445331768
-0.398048278
-0.373686886
-0.359720399
-0.365264348
-0.36483789
-0.388612903
-0.400926867
-0.434137255
-0.463296296
-0.462816531
-0.502157247
-0.496453376
-0.490802813
-0.463083067
-0.451515404
-0.407643575
-0.382749111
-0.329815057
-0.283277868
-0.23386209
-0.177516376
-0.10976292
-0.061466593
-0.020206818
0.038537721
0.083529001
0.128093823
0.168020919
0.200271777
0.236307447
0.260988682
0.294998678
0.328102452
0.35672842
0.392444247
0.42346904
0.449216419
0.480667669
0.484825631
0.51019986
0.525285799
0.531682663
0.558016422
0.57827316
0.598103439
0.612602999
0.635205253
0.648105596
0.657594279
0.648158904
0.565905888
0.42917291
0.226285693
-0.011464436
-0.269844453
-0.508127654
-0.731218302
-0.912249566
-1.070252118
-1.134167456
-1.167964223
-1.170416354
-1.146001655
-1.08661743
-1.00521733
-0.952123355
-0.879678865
-0.809633199
-0.747583614
-0.662025551
-0.579079542
-0.528117855
-0.47235852
-0.417185564
-0.379657293
-0.338770668
-0.317501093
-0.320966061
-0.309398398
-0.322458663
-0.336638379
-0.346553519
-0.376778704
-0.389359204
-0.404178607
-0.386640537
-0.400660331
-0.390265426
-0.387493452
-0.356468659
-0.331414273
-0.296231519
-0.251933233
-0.214085118
-0.143826223
-0.086627594
-0.046007504
0.005860405
0.056982013
0.100587306
0.159971531
0.211732826
0.262427977
0.306086577
0.343348312
0.36264552
0.370694908
0.401986237
0.436955762
0.470859144
0.486691383
0.514037979
0.523526661
0.559242488
0.566385653
0.597303831
0.618200255
0.61772049
0.634299031
0.659833181
0.690911281
0.700719807
0.722788989
0.763728922
0.788143621
0.824019369
0.849660134
0.882230836
0.90845798
0.920452101
0.907285221
0.835373803
0.677957631
0.490796038
0.208267858
-0.072874335
-0.355455822
-0.576307568
-0.78958969
-0.943807431
-1.019610275
-1.065667699
-1.055965788
-1.045197732
-0.984853978
-0.918166666
-0.832715218
-0.753500713
-0.651257496
-0.585049949
-0.524279737
-0.461857001
-0.406630738
-0.346127062
-0.325870324
-0.255558122
-0.208541169
-0.20107816
-0.186631908
-0.193988302
-0.220428675
-0.246602512
-0.28114558
-0.294259152
-0.315528727
-0.337064837
-0.309185169
-0.320059839
-0.305453665
-0.294419074
-0.270963904
-0.239246118
-0.2294909
-0.16637517
-0.110669142
-0.055602801
0.000369763
0.063218956
0.142326847
0.195527436
0.240785252
0.279006517
0.324424255
0.358807401
0.36093969
0.406997114
0.444791921
0.482799957
0.515104123
0.5511931
0.596024458
0.620865615
0.631580363
0.656474827
0.679716768
0.679716768
0.722522453
0.739207608
0.74107336
0.760370568
0.772044845
0.780787227
0.825618585
0.820447786
0.840864445
0.862347249
0.890759988
0.920931866
0.970347643
1.000306292
1.021362638
1.05505279
1.085970969
1.115556467
1.117901984
1.145834958
1.133894145
1.056065627
0.914535001
0.685740482
0.407157035
0.129799654
-0.140947634
-0.390905113
-0.588301689
-0.748916294
-0.871416248
-0.916780678
-0.913422325
-0.882397532
-0.834367741
-0.761123643
-0.688785768
-0.590913742
-0.493734709
-0.404018685
-0.322458663
-0.260089235
-0.166801628
-0.10938977
-0.057202017
-0.01386326
0.038964179
0.055915869
0.081023562
0.073667168
0.044454821
0.010178289
-0.029215735
-0.067916765
-0.085454835
-0.117439157
-0.134604077
-0.149583401
-0.162643666
-0.13817566
-0.112641509
-0.096915884
-0.057361939
-0.029269042
-0.000643074
0.068816213
0.095256586
0.140994167
0.182094021
0.23092342
0.282311564
0.323997797
0.335085696
0.377464923
0.406144198
0.44729736
0.484825631
0.526298636
0.545276
0.56014871
0.584296874
0.593572327
0.626622793
0.648318825
0.673000061
0.678064245
0.691444353
0.708609273
0.717778112
0.733770273
0.751788108
0.766181053
0.789529608
0.805361848
0.833081594
0.842570276
0.881431228
0.888147935
0.853871403
0.782759593
0.651943715
0.446497752
0.214025036
-0.066957235
-0.337597909
-0.578333241
-0.775356667
-0.929414486
-1.007989304
-1.069932275
-1.088003417
-1.067106993
-1.01950366
-0.94343428
-0.89082007
-0.791028985
-0.712240937
-0.64299488
-0.57092354
-0.509300413
-0.461857001
-0.394796539
-0.338610746
-0.27485533
-0.245483061
-0.225173016
-0.228584677
-0.227465226
-0.243084237
-0.247455427
-0.272723042
-0.305187129
-0.351137939
-0.376672089
-0.372140977
-0.385840929
-0.371607905
-0.359827013
-0.363238674
-0.340156655
-0.311477379
-0.27085729
-0.225599474
-0.194094916
-0.146491583
-0.093077765
-0.028842585
0.002182208
0.054529882
0.094083827
0.117165847
0.190623173
0.221701273
0.253898824
0.288921657
0.31994645
0.328955367
0.359713624
0.371867666
0.400333713
0.408862866
0.454440525
0.439194665
0.455346748
0.476136557
0.489463358
0.511692462
0.535200939
0.551939401
0.568571248
0.591173503
0.61638781
0.627475709
0.636964391
0.623157825
0.596024458
0.499751648
0.336045225
0.106344484
-0.164509418
-0.429446221
-0.691397821
-0.918539816
-1.102289748
-1.233638698
-1.320742669
-1.368505923
-1.365947178
-1.335082307
-1.292276622
-1.21167613
-1.140724242
-1.058417919
-1.005697094
-0.930107479
-0.851905811
-0.777115804
-0.721836234
-0.682762054
-0.632546668
-0.577373712
-0.541391349
-0.517029957
-0.518522559
-0.533501883
-0.551146568
-0.574495123
-0.604720307
-0.618473566
-0.643687873
-0.670927854
-0.683934812
-0.683241819
-0.670981162
-0.651737261
-0.621938534
-0.60104211
-0.562394388
-0.529077385
-0.500504724
-0.439041518
-0.392504329
-0.349538723
-0.292819858
-0.238233281
-0.16370981
-0.134337541
-0.101127153
-0.060453756
-0.025430924
0.005593869
0.045467657
0.084275302
0.115086866
0.148403868
0.159171923
0.186731748
0.199578784
0.22100828
0.243823763
0.259229545
0.301555465
0.313069821
0.334126166
0.354329596
0.366963404
0.388179671
0.424641798
0.451082171
0.473044739
0.492821712
0.526671786
0.569850621
0.608658266
0.609138031
0.599755963
0.540105202
0.427520387
0.224419941
-0.032200938
-0.311477379
-0.587395466
-0.842257207
-1.062682495
-1.23646398
-1.354166286
-1.422506121
-1.436312687
-1.426131011
-1.388762661
-1.329858201
-1.260612143
-1.174254473
-1.069932275
-1.00825584
-0.943167744
-0.894551574
-0.834687585
-0.780474158
-0.715386062
-0.661385865
-0.618473566
-0.584090419
-0.582704432
-0.589634369
-0.602481405
-0.63345289
-0.66586367
-0.703391942
-0.735109728
-0.767467201
-0.789323154
-0.796253091
-0.79913168
-0.788097088
-0.763415853
-0.730791844
-0.711281408
-0.66815588
-0.628175477
-0.585956172
-0.541604578
-0.486964694
-0.443945781
-0.393037401
-0.329281985
-0.284184091
-0.230983501
-0.20566258
-0.174158022
-0.149316865
-0.110242685
-0.095956354
-0.043768602
-0.030335186
-0.013596724
0.011724197
0.032727236
0.054903033
0.065084708
0.093230912
0.130705876
0.126601222
0.121270501
0.150536156
0.16876722
0.189130572
0.21908922
0.248728026
0.279113132
0.300702549
0.327835916
0.3203196
0.294625528
0.191955854
0.054210039
-0.164456111
-0.418358323
-0.687506395
-0.941888371
-1.160714443
-1.359283777
-1.501347475
-1.629124843
-1.65567183
-1.662015388
-1.628431849
-1.58647908
-1.509396863
-1.436899066
-1.351820769
-1.291103864
-1.232412632
-1.157889161
-1.102982741
-1.052074362
-1.006230166
-0.954042414
-0.905799394
-0.8673649
-0.848067693
-0.853505027
-0.865125998
-0.860754807
-0.893165587
-0.921098562
-0.935864657
-0.966462992
-0.982774997
-0.968488666
-0.976697975
-0.984747363
-0.967902287
-0.947165785
-0.922164706
-0.885329428
-0.842043979
-0.789376461
-0.73335059
-0.689425454
-0.636278172
-0.58846161
-0.530729908
-0.496879834
-0.442613101
-0.390105505
-0.342448865
-0.312383602
-0.285410157
-0.249587716
-0.201611232
-0.191536171
-0.164616033
-0.134497463
-0.103579284
-0.091371935
-0.068609759
-0.072980949
-0.039397411
0.000529685
0.025637378
0.033473537
0.062046198
0.091151931
0.110342525
0.130386033
0.155440419
0.166848161
0.157732629
0.061779662
-0.081510102
-0.298630343
-0.545815847
-0.804942165
-1.081073481
-1.324740709
-1.522510435
-1.641971879
-1.749385895
-1.808130433
-1.826041654
-1.807224211
-1.763245768
-1.706420288
-1.638080453
-1.568301323
-1.498842037
-1.427730227
-1.358590784
-1.308375398
-1.267488772
-1.215247713
-1.154744036
-1.086084358
-1.050368531
-1.039440554
-1.030431637
-1.032617232
-1.042052607
-1.083205769
-1.104795186
-1.122120027
-1.15714286
-1.165672013
-1.1603946
-1.177026447
-1.160874365
-1.142323458
-1.139977941
-1.098131786
-1.067213608
-1.020036732
-0.977124433
-0.922431242
-0.873122078
-0.828983714
-0.782073374
-0.740280527
-0.684307963
-0.640649363
-0.590274055
-0.550506881
-0.514524518
-0.475503645
-0.442559793
-0.403432306
-0.376725397
-0.364251511
-0.333439947
-0.292340093
-0.281625345
-0.256091194
-0.226132546
-0.212912359
-0.187751359
-0.168987223
-0.149316865
-0.150916081
-0.133058168
-0.105125193
-0.080443958
-0.032254246
-0.018181144
0.013056878
0.048506168
0.071321651
0.104958497
0.130172804
0.16380965
0.184599459
0.168980449
0.102559673
-0.045634354
-0.264780269
-0.533235347
-0.824079451
-1.097332178
-1.350488089
-1.575018031
-1.726836947
-1.837822546
-1.895874091
-1.916770515
-1.886012258
-1.845978548
-1.770229011
-1.69570554
-1.617184029
-1.536263694
-1.472028513
-1.404008521
-1.320955898
-1.269567753
-1.20138784
-1.15085261
-1.12473208
-1.092801065
-1.049035851
-1.041732764
-1.048396165
-1.052180976
-1.074623309
-1.11273796
-1.127237519
-1.142483379
-1.154317579
-1.181397638
-1.173828015
-1.177559519
-1.148613708
-1.137099352
-1.0982384
-1.073343936
-1.029951872
-0.9857602
-0.964490626
-0.896683863
-0.843216737
-0.792308358
-0.746144319
-0.696888463
-0.615008598
-0.58217136
-0.543896788
-0.50343662
-0.449116579
-0.425128338
-0.380190365
-0.357428189
-0.328375763
-0.302521769
-0.281838574
-0.257530489
-0.210939993
-0.202357533
-0.187751359
-0.167494622
-0.147717649
-0.12330295
-0.092171543
-0.077671983
-0.039663947
-0.025377616
-0.004694421
0.015455702
0.06124659
0.078518124
0.102559673
0.134224152
0.171699116
0.209014159
0.259656002
0.279859433
0.2892415
0.278473445
0.22596585
0.107357321
-0.043821909
-0.32443103
-0.604826922
-0.886342265
-1.135126985
-1.364614498
-1.568621167
-1.685843708
-1.747360221
-1.777532098
-1.773427444
-1.723425286
-1.692027343
-1.614038904
-1.518565702
-1.42271935
-1.333856241
-1.267595387
-1.231772946
-1.157089553
-1.073237322
-1.004950793
-0.95334942
-0.915181462
-0.880638394
-0.857556375
-0.855210858
-0.869230653
-0.899135994
-0.931866617
-0.966942757
-0.993169901
-1.007029774
-1.035868972
-1.041839379
-1.054899643
-1.059590677
-1.031870931
-1.000526296
-0.976964511
-0.924243687
-0.878292877
-0.851959119
-0.794280724
-0.739001154
-0.679510314
-0.627589098
-0.592992722
-0.544536474
-0.509460334
-0.439361361
-0.405084829
-0.374806337
-0.343035244
-0.327416233
-0.291966943
-0.255451508
-0.236207607
-0.234715006
-0.21003377
-0.200598395
-0.172345577
-0.14350638
-0.117972229
-0.080337344
-0.070422204
-0.049952237
-0.016848464
0.01167089
0.020679808
0.048826011
0.080810334
0.092218075
0.126174764
0.141580546
0.146911266
0.09365737
-0.0111979
-0.2109933
-0.437069151
-0.682921975
-0.9421016
-1.192965301
-1.417228708
-1.594954925
-1.71420314
-1.780837145
-1.80189349
-1.802533177
-1.76415199
-1.682645275
-1.622568057
-1.558332876
-1.488447132
-1.418881231
-1.348888872
-1.310560993
-1.246005969
-1.185129142
-1.130489258
-1.072757557
-1.021635948
-1.017104836
-0.993756281
-0.976218211
-0.970087882
-0.984480827
-1.009801749
-1.066254078
-1.06545447
-1.080220565
-1.09957108
-1.110285828
-1.109646142
-1.121320419
-1.081926396
-1.058897684
-1.02675344
-0.976538054
-0.93485182
-0.902494348
-0.85611708
-0.789483076
-0.727273569
-0.669435253
-0.634092577
-0.606479445
-0.553598699
-0.476836325
-0.431258666
-0.402579391
-0.353163613
-0.345434068
-0.312490216
-0.283491097
-0.255824658
-0.233275711
-0.21557772
-0.202304226
-0.16600202
-0.14313323
-0.131832102
-0.102673062
-0.081776638
-0.074526858
-0.053044055
-0.015888934
0.013376721
0.049092547
0.082836007
0.074413469
0.123082946
0.148990247
0.105118419
0.005540562
-0.147451113
-0.394370081
-0.654882386
-0.91827328
-1.181397638
-1.412697595
-1.60268447
-1.755889373
-1.839688298
-1.883346898
-1.883080362
-1.86271701
-1.813780997
-1.741336507
-1.670278004
-1.599486038
-1.531092895
-1.464512197
-1.400703475
-1.34265193
-1.278843207
-1.196590191
-1.143123066
-1.107940311
-1.081393324
-1.070145504
-1.043811745
-1.040560006
-1.066893764
-1.075689453
-1.103249277
-1.139711405
-1.152665055
-1.167964223
-1.168337373
-1.167431151
-1.162207045
-1.149573237
-1.11177843
-1.086457508
-1.04924908
-1.027339819
-0.98405437
-0.931866617
-0.871522862
-0.805688466
-0.760537264
-0.691184592
-0.649125208
-0.59741722
-0.54080497
-0.503703156
-0.455886594
-0.425501488
-0.394903153
-0.367983015
-0.346073754
-0.318620545
-0.279706286
-0.250707167
-0.218349694
-0.204809664
-0.182047488
-0.169573603
-0.131832102
-0.112481587
-0.098248564
-0.079431121
-0.067437
-0.014609561
0.000103227
0.026810136
0.068176526
0.092484611
0.127987209
0.168020919
0.207201714
0.237800049
0.271969966
0.266532632
0.217649926
0.093604063
-0.104538814
-0.357001731
-0.638570382
-0.919925803
-1.181077795
-1.408539634
-1.592716023
-1.715429206
-1.785794715
-1.81868526
-1.812341702
-1.762126316
-1.697091528
-1.635041942
-1.553855071
-1.473147965
-1.387216752
-1.327565991
-1.254854965
-1.172548642
-1.117269072
-1.062042809
-1.035922279
-0.993543052
-0.951856819
-0.929361179
-0.935384893
-0.942741287
-0.972486706
-1.004097878
-1.035975586
-1.056072402
-1.087470345
-1.098451629
-1.104955108
-1.069026052
-1.067959908
-1.056712088
-1.035229285
-1.01188073
-0.971367255
-0.921738248
-0.872269163
-0.826424968
-0.784045741
-0.735856029
-0.674552744
-0.621512077
-0.568418102
-0.536433779
-0.498052593
-0.440960577
-0.407003888
-0.368356166
-0.336158615
-0.317447786
-0.288501974
-0.25598458
-0.231250037
-0.214831419
-0.193401923
-0.176396925
-0.151822304
-0.131139109
-0.100487467
-0.08955949
-0.081243566
-0.022978792
-0.014129796
0.024891077
0.037205041
0.046320573
0.085554675
0.114020722
0.133424544
0.134970453
0.118924984
0.054316653
-0.090519019
-0.302948227
-0.551786254
-0.835060735
-1.131715324
-1.358484169
-1.569420775
-1.73765831
-1.845445476
-1.889743762
-1.908774434
-1.883986584
-1.837129552
-1.763885454
-1.69629192
-1.621288684
-1.55444145
-1.479224986
-1.416002642
-1.351820769
-1.275111702
-1.224203323
-1.170522969
-1.100104152
-1.054739722
-1.035175978
-1.034696213
-1.048929237
-1.061616351
-1.084591756
-1.119934432
-1.152824977
-1.177133062
-1.18518245
-1.194351289
-1.21204928
-1.202560598
-1.174627623
-1.160501214
-1.148293865
-1.120947269
-1.075636146
-1.021955792
-0.977817427
-0.923390772
-0.86603222
-0.807074453
-0.759044662
-0.718851031
-0.656055145
-0.607492282
-0.556797131
-0.516923343
-0.465641813
-0.444852003
-0.415799577
-0.388399674
-0.354229757
-0.338823975
-0.323258271
-0.291700407
-0.270430832
-0.254012214
-0.22586601
-0.214458268
-0.189670419
-0.159072084
-0.146384969
-0.122290113
-0.080284036
-0.073194178
-0.03731843
-0.010025142
0.006500091
-0.023351943
-0.114400647
-0.285143621
-0.521187919
-0.780420851
-1.060390285
-1.312799895
-1.546125527
-1.738297996
-1.883133669
-1.950194131
-1.969438032
-1.977913877
-1.95861667
-1.903337099
-1.837662624
-1.755409609
-1.666386578
-1.593835474
-1.533545026
-1.473201272
-1.402089462
-1.341052713
-1.298460258
-1.231772946
-1.186195286
-1.166151778
-1.150799303
-1.129796265
-1.140137862
-1.142589994
-1.155170494
-1.163006653
-1.202613905
-1.215087791
-1.223936787
-1.230760109
-1.232999011
-1.21700685
-1.197496414
-1.167058
-1.130009494
-1.083418997
-1.06087005
-1.004577643
-0.947432321
-0.897376856
-0.848760686
-0.789376461
-0.734416734
-0.689585376
-0.649071901
-0.594218788
-0.550293652
-0.513138531
-0.473957736
-0.448903351
-0.408229954
-0.363078752
-0.299963023
-0.272349892
-0.25694411
-0.264087275
-0.218403001
-0.20337037
-0.183966548
-0.145691975
-0.117332543
-0.097608878
-0.073140871
-0.041529699
-0.01940721
0.015509009
0.050318613
0.076385836
0.128040516
0.161837283
0.19925894
0.234228466
0.264187115
0.310191232
0.34510745
0.383755173
0.376825236
0.316214946
0.184332923
-0.007839546
-0.266219563
-0.546562148
-0.846042019
-1.101010375
-1.323567951
-1.511635766
-1.647569135
-1.719373939
-1.74432171
-1.715375899
-1.657804118
-1.595008232
-1.515900342
-1.420587062
-1.341958936
-1.253522285
-1.18022488
-1.105754716
-1.042479065
-0.97184702
-0.890766763
-0.833514826
-0.788310317
-0.760217421
-0.732657596
-0.729619086
-0.741293363
-0.751315118
-0.782020067
-0.801583811
-0.842736972
-0.863526782
-0.857289839
-0.874721295
-0.870030261
-0.870296797
-0.847801157
-0.816349906
-0.782233296
-0.740813599
-0.690384984
-0.624017515
-0.570497082
-0.52555911
-0.472251906
-0.424915109
-0.386054157
-0.327522848
-0.273949108
-0.222667578
-0.181194573
-0.135190456
-0.090412405
-0.044621517
0.000796221
0.033100386
0.063325571
0.092804454
0.112847963
0.159758302
0.192542233
0.212958892
0.242384468
0.270583979
0.304487361
0.317814162
0.335778689
0.349585255
0.398787804
0.424215341
0.441433567
0.449429648
0.499804956
0.527844545
0.577047094
0.605246605
0.632966351
0.638243764
0.647625832
0.60343416
0.475177027
0.288335278
0.0450412
-0.214671497
-0.485738628
-0.749609287
-0.975525217
-1.154584115
-1.280389116
-1.3542729
-1.379913665
-1.363121896
-1.323088186
-1.266262707
-1.191739236
-1.102343055
-1.014599397
-0.933199297
-0.857236532
-0.78425897
-0.705950687
-0.646299926
-0.582011439
-0.51372491
-0.451622018
-0.415053276
-0.421396833
-0.44128042
-0.447997128
-0.468253866
-0.498532357
-0.537020158
-0.589314525
-0.614528833
-0.623377829
-0.627855634
-0.60925142
-0.596777534
-0.57854647
-0.55205279
-0.509673563
-0.467720794
-0.432804575
-0.394370081
-0.346446905
-0.294205845
-0.244256995
-0.196333819
-0.142973308
-0.086574286
-0.036092364
0.014496172
0.067003768
0.08640759
0.119564671
0.142220232
0.180121654
0.214931258
0.239292651
0.259762617
