0.000765091
0.006669827
0.029237943
0.088007797
0.20852378
0.419584693
0.750579539
1.22894154
1.877985715
2.715252042
3.751156445
4.987866779
6.418568785
8.027219882
9.788770594
11.66977842
13.62930888
15.62010897
17.59008537
19.48400961
21.24531923
22.81789048
24.14772307
25.18461929
25.88384976
26.2076404
26.12646064
25.62018174
24.67897893
23.30376668
21.50613498
19.30790239
16.74040966
13.84363238
10.66507892
7.2584099
3.681863211
-0.003376044
-3.734819466
-7.450316894
-11.08965835
-14.5960858
-17.91759528
-21.00798443
-23.82774186
-26.34475402
-28.53468286
-30.38100726
-31.87483052
-33.01451403
-33.80521912
-34.25842779
-34.39133099
-34.225952
-33.78808312
-33.10620713
-32.21046995
-31.13162303
-29.89987816
-28.54377011
-27.08913392
-25.55825876
-23.96926015
-22.33566327
-20.666209
-18.96493627
-17.2315809
-15.46230141
-13.65069481
-11.78898473
-9.869266159
-7.884805331
-5.831389259
-3.70855261
-1.520478711
0.723398208
3.007952652
5.312182805
7.6094693
9.868218767
12.05266542
14.12374323
16.04016026
17.75982152
19.24155277
20.44688532
21.34165304
21.8973233
22.09215605
21.91224112
21.35225176
20.41575115
19.11513979
17.47139082
15.51353975
13.2778554
10.80672832
8.147391443
5.350600333
2.469294337
-0.442807309
-3.332625859
-6.14906117
-8.844195889
-11.37436604
-13.70111233
-15.79198175
-17.62111173
-19.16951521
-20.42506624
-21.38232326
-22.04226308
-22.41182647
-22.50319986
-22.33294296
-21.92114525
-21.29068914
-20.46655629
-19.47506346
-18.34301688
-17.09688742
-15.76208365
-14.36228449
-12.91874404
-11.44960695
-9.969382589
-8.488649378
-7.013922721
-5.547579119
-4.087891196
-2.629378423
-1.163508421
0.320411285
1.834249293
3.38995461
4.998341098
6.667870116
8.403586723
10.20628177
12.07191909
13.99129339
15.94980984
17.92741381
19.89882601
21.83411595
23.69950942
25.45833995
27.07212996
28.50187895
29.70955567
30.6595622
31.3199956
31.66378579
31.66980886
31.32387471
30.61937528
29.55759056
28.14786473
26.40764966
24.36219262
22.04382691
19.49101379
16.74724187
13.85983283
10.8787219
7.855199571
4.840505961
1.884402977
-0.966021143
-3.667385627
-6.181071667
-8.47421599
-10.52042501
-12.3001084
-13.80056142
-15.01599062
-15.94745836
-16.60254439
-16.99465752
-17.14217933
-17.06766672
-16.79715783
-16.35943983
-15.78516763
-15.10586028
-14.35284553
-13.55623546
-12.74398987
-11.9410559
-11.1685784
-10.44319605
-9.776459144
-9.174433129
-8.637497773
-8.160358007
-7.732307881
-7.33769471
-6.956565393
-6.565562983
-6.139065374
-5.650517509
-5.073864944
-4.384953842
-3.562854997
-2.591083202
-1.458679188
-0.161166818
1.298693563
2.910533358
4.65645881
6.511434026
8.443862058
10.41648177
12.38759001
14.31243352
16.14467418
17.83790885
19.34720223
20.63058435
21.65049245
22.37503377
22.77891882
22.84412146
22.56042137
21.92583786
20.94681297
19.63805134
18.02209776
16.12877713
13.99447638
11.66114767
9.175042714
6.585368485
3.943010249
1.299328545
-1.295031966
-3.791397527
-6.144356142
-8.312952043
-10.26168539
-11.96128764
-13.38927154
-14.53021406
-15.37573687
-15.92428848
-16.18083419
-16.15639389
-15.8674089
-15.33506641
-14.58463086
-13.64471043
-12.54642959
-11.32255793
-10.00663006
-8.632071552
-7.231369754
-5.835281621
-4.47209991
-3.167065048
-1.941850461
-0.813985991
0.203697369
1.103467748
1.882961867
2.545351185
3.099325258
3.558781172
3.942163242
4.271511871
4.571345704
4.867441838
5.185526693
5.549969645
5.982608134
6.501704688
7.120960369
7.848614205
8.68681619
9.631422697
10.67213137
11.79279523
12.97185533
14.18290446
15.39546782
16.57608558
17.68957358
18.70024094
19.57304963
20.27480888
20.77540604
21.04897823
21.07488859
20.83847386
20.33162161
19.55316673
18.50905697
17.21224412
15.68225909
13.94455817
12.02978566
9.972884879
7.811935454
5.586844666
3.338091544
1.105576946
-1.072458355
-3.160486132
-5.12666517
-6.943645377
-8.589192091
-10.04662725
-11.30501231
-12.35906842
-13.2089204
-13.8596958
-14.32095564
-14.60598159
-14.73103311
-14.71466003
-14.57706196
-14.33948882
-14.02367938
-13.65131362
-13.24346413
-12.82004003
-12.39921555
-11.99685843
-11.62608226
-11.29698495
-11.01640967
-10.78768348
-10.610469
-10.48072173
-10.39069784
-10.32908065
-10.28130784
-10.23009981
-10.15616081
-10.0390124
-9.85788697
-9.592698703
-9.225154952
-8.739905289
-8.125527912
-7.37528098
-6.487681114
-5.466925192
-4.323092195
-3.072103148
-1.735472406
-0.339891534
1.083354733
2.499176922
3.869677805
5.155344644
6.316417549
7.314347895
8.113208853
8.680983189
8.990694826
9.021281823
8.758213307
8.194028959
7.328762654
6.170021485
4.732726712
3.03866139
1.115906405
-1.00180945
-3.275898871
-5.663911732
-8.120707195
-10.59963406
-13.05356203
-15.435786
-17.70091329
-19.80580708
-21.71056628
-23.37941746
-24.78145117
-25.89123324
-26.68927471
-27.16235827
-27.30374567
-27.11321574
-26.5969494
-25.76729461
-24.64229257
-23.24494828
-21.6024196
-19.74522524
-17.70647549
-15.52116121
-13.22550331
-10.85622481
-8.449663741
-6.040837734
-3.662556272
-1.344629428
0.886752295
3.00947971
5.005949353
6.863479512
8.574555862
10.13677354
11.55249622
12.82829317
13.97418842
15.00272911
15.92794692
16.76433926
17.52586515
18.22493521
18.87151282
19.47238766
20.03060037
20.54507039
21.01049614
21.41751845
21.75306526
22.00080182
22.141726
22.15501144
22.01906875
21.71264523
21.21584987
20.51112764
19.58418815
18.42484781
17.02776926
15.39303057
13.5264631
11.4398152
9.150764005
6.682711035
4.064349178
1.329050717
-1.48588487
-4.340108933
-7.191214324
-9.995795036
-12.7105031
-15.29307643
-17.70334457
-19.90415739
-21.86218665
-23.54865044
-24.94000098
-26.01849144
-26.77246916
-27.19637442
-27.29059019
-27.06122137
-26.51975361
-25.68256976
-24.57037887
-23.20757955
-21.62156339
-19.84202273
-17.90027264
-15.82856544
-13.65944076
-11.42515106
-9.157143765
-6.885533164
-4.638549334
-2.441984258
-0.318569002
1.7127169
3.637253668
5.44515234
7.131333346
8.695441152
10.14168577
11.47851594
12.71811193
13.87568519
14.96853558
16.0150504
17.03379341
18.04255797
19.05731893
20.0912129
21.15366884
22.24974435
23.37967922
24.53861381
25.71646966
26.89807004
28.06345974
29.18832307
30.24459275
31.20138083
32.02614781
32.68593031
33.14854288
33.38381094
33.36484942
33.06924546
32.4800555
31.58660001
30.38503925
28.87873032
27.07831758
25.00153249
22.67272253
20.12211425
17.38489996
14.50027838
11.51050194
8.459902195
5.393824973
2.357476383
-0.605230297
-3.452731765
-6.146736944
-8.653071848
-10.94249257
-12.99139239
-14.78231019
-16.30420983
-17.55253196
-18.52898198
-19.24103342
-19.70125643
-19.92659156
-19.93759795
-19.75767002
-19.41223908
-18.92802275
-18.33232958
-17.65236328
-16.91454527
-16.14388832
-15.36339185
-14.59345736
-13.85134991
-13.15071893
-12.50119723
-11.90811532
-11.37237831
-10.89052543
-10.45497072
-10.05444511
-9.674650221
-9.299093378
-8.910075718
-8.489767955
-8.021253608
-7.489495101
-6.882265174
-6.191037055
-5.411722513
-4.545164569
-3.597418929
-2.57984748
-1.508969824
-0.406053559
0.703556
1.791311115
2.826402286
3.776749517
4.610125881
5.295364271
5.803560879
6.109197482
6.191068545
6.033027513
5.624634591
4.961662191
4.046366275
2.887520141
1.500271672
-0.094164161
-1.86903106
-3.79279343
-5.830024009
-7.942289454
-10.08907873
-12.22883018
-14.31998528
-16.32201784
-18.19641202
-19.90756621
-21.42363441
-22.71731732
-23.76657644
-24.5551487
-25.07274848
-25.3150134
-25.28333832
-24.98463491
-24.43096108
-23.63903393
-22.62966616
-21.42712902
-20.05846567
-18.55277732
-16.94050309
-15.25268899
-13.52024782
-11.77331656
-10.04071654
-8.349347974
-6.723515951
-5.184380711
-3.749597731
-2.433025381
-1.244428768
-0.189233787
0.731605847
1.521579284
2.188445033
2.744002468
3.203765728
3.58642237
3.913138242
4.206810259
4.491222333
4.790052096
5.125752338
5.518408764
5.984718192
6.537160593
7.183375439
7.925745222
8.76119777
9.681243297
10.67224726
11.71592784
12.79003381
13.86915158
14.92558652
15.93024833
16.85356241
17.6664473
18.34129121
18.85282693
19.17884793
19.30088991
19.20499277
18.88236536
18.32977085
17.54963728
16.54998478
15.34425038
13.95097848
12.39336871
10.69872977
8.897810525
7.024012339
5.112518705
3.199338096
1.320352462
-0.489541877
-2.197254647
-3.772294507
-5.187475769
-6.419526923
-7.449568864
-8.263426593
-8.851838541
-9.210595517
-9.340555049
-9.247543115
-8.94217143
-8.439508507
-7.758552883
-6.921569111
-5.953386013
-4.880686635
-3.731237399
-2.533049976
-1.313611524
-0.099219138
1.085734864
2.219565702
3.284079364
4.265207574
5.153389509
5.943719889
6.635917882
7.234140036
7.746676678
8.185488721
8.565510055
8.903763409
9.21840062
9.527732841
9.849257749
10.19866487
10.58886079
11.02912042
11.52443279
12.07508571
12.67650557
13.31931452
13.98959949
14.6693861
15.33726156
15.96911976
16.53900746
17.01999988
17.38507958
17.60805579
17.66451157
17.53275329
17.19473673
16.63687535
15.85066994
14.83316625
13.58725636
12.1218305
10.45171893
8.59738127
6.584411262
4.44289237
2.206554098
-0.088230368
-2.403446774
-4.700371215
-6.940486477
-9.086418344
-11.10285526
-12.9573963
-14.62128554
-16.0700186
-17.28385841
-18.2482709
-18.95421724
-19.39829966
-19.58279394
-19.51550984
-19.20945322
-18.68234331
-17.95601609
-17.05578255
-16.00977188
-14.84815302
-13.60220017
-12.30332339
-10.98218128
-9.667852232
-8.386949834
-7.162719296
-6.014304533
-4.956232951
-3.997982744
-3.143622647
-2.391703809
-1.73546707
-1.163286389
-0.659301933
-0.204212884
0.223772523
0.647806435
1.091105942
1.575575661
2.120506721
2.741485927
3.449507239
4.250238509
5.143517456
6.123138821
7.176911268
8.287026414
9.430691773
10.58086146
11.70707814
12.77650349
13.7550529
14.60854654
15.30389158
15.81028063
16.10033183
16.15113513
15.94518314
15.4711224
14.72427341
13.70691955
12.42837206
10.90477784
9.158681469
7.218439481
5.117519006
2.893603132
0.587430912
-1.758558308
-4.101553615
-6.399509479
-8.612123938
-10.70178391
-12.63449991
-14.38070734
-15.91583964
-17.22070528
-18.2816893
-19.0907383
-19.64517836
-19.94746309
-20.00482318
-19.82877165
-19.4345414
-18.84050756
-18.06758799
-17.13865222
-16.07793113
-14.9104251
-13.66135845
-12.35566867
-11.01746909
-9.669462324
-8.332388165
-7.024622133
-5.761894204
-4.557002115
-3.419472184
-2.355226172
-1.36639233
-0.451361812
0.394996511
1.181048413
1.917920986
2.618752219
3.297726031
3.969040106
4.645983669
5.340158815
6.060774648
6.814012277
7.602445846
8.424550557
9.274444199
10.14191119
11.01260698
11.86835356
12.6875354
13.44567365
14.11624537
14.67170018
15.08456956
15.32863616
15.38011285
15.21876309
14.82896229
14.20063931
13.32998295
12.21990604
10.88030695
9.328100852
7.586993747
5.687023055
3.663893646
1.558103505
-0.586200321
-2.722649818
-4.804261944
-6.785080838
-8.621789022
-10.27527618
-11.71207015
-12.90550365
-13.83658445
-14.49455298
-14.87709417
-14.99020909
-14.84777296
-14.47079927
-13.88646451
-13.12697141
-12.228289
-11.22880168
-10.16789483
-9.084493215
-8.015676451
-6.995550259
-6.054363839
-5.217728775
-4.914900318
-4.866554139
-4.820477377
-4.645918303
-4.616779072
-4.505923595
-4.339766104
-4.228891063
-4.026381649
-3.933367972
-3.713088362
-3.598029312
-3.508276956
-3.434485386
-3.232451779
-3.22211102
-3.103466084
-3.101204602
-2.74352566
-1.663932547
-0.366621717
1.132107603
2.80735064
4.626275875
6.549058123
8.530069672
10.51932139
12.46405019
14.31033949
16.00475049
17.4960067
18.73671678
19.68501651
20.30595944
20.57256719
20.46663884
19.97940893
19.1119622
17.87529101
16.28998255
14.38560577
12.1998556
9.777447768
7.168768875
4.428319228
1.613048371
-1.219253371
-4.011423519
-6.708318818
-9.258222638
-11.61419954
-13.73518548
-15.58674548
-17.14163096
-18.3802422
-19.29093818
-19.87007747
-20.12181109
-20.05770716
-19.69621018
-19.06193792
-18.18482847
-17.09912615
-15.84224217
-14.45356684
-12.97328128
-11.44120242
-9.89566722
-8.372412327
-6.903464981
-5.516188937
-4.232579513
-3.068729109
-2.034412117
-1.132914674
-0.361228047
0.289459506
0.833097294
1.287940364
1.675514676
2.019446871
2.344259357
2.674149796
3.031762115
3.436994459
3.905906848
4.449823312
5.074701336
5.780735321
6.562155568
7.407328377
8.299241466
9.216235146
10.13281796
11.02061443
11.84952892
12.58901973
13.20932468
13.68261248
13.9840915
14.09305323
13.99376717
13.67612908
13.13601486
12.37537873
11.40217223
10.23010689
8.878276087
7.370693021
5.735720232
4.005310993
2.21410397
0.39844387
-1.404711487
-3.158943362
-4.829402768
-6.383667931
-7.792433585
-9.03003922
-10.0749303
-10.91007937
-11.52329846
