6.74E-06
5.82E-05
0.000252265
0.000749008
0.001747238
0.003457136
0.006078439
0.009783728
0.014706367
0.020932531
0.028496707
0.037380182
0.047512073
0.058772497
0.070997459
0.083985125
0.097503182
0.111296911
0.125097577
0.138630755
0.151624296
0.163815706
0.17495883
0.184829566
0.193230463
0.199994158
0.204985792
0.208104556
0.209284565
0.208495174
0.205740788
0.20106015
0.194525218
0.186239887
0.17633878
0.164985902
0.152372546
0.138713969
0.124244696
0.109212552
0.093871909
0.078476664
0.063273277
0.048494121
0.034351381
0.021031721
0.008691963
-0.002544002
-0.012587028
-0.021383336
-0.028914131
-0.035194406
-0.040271089
-0.044220639
-0.047146102
-0.049173492
-0.050447706
-0.051128507
-0.051386628
-0.051399661
-0.051347438
-0.051406938
-0.051746839
-0.052522097
-0.053869008
-0.055901134
-0.058706313
-0.062344799
-0.066848606
-0.072222036
-0.078443136
-0.085465811
-0.093222439
-0.101626853
-0.110577587
-0.119961253
-0.129656008
-0.139534999
-0.149469769
-0.159333476
-0.169003778
-0.17836533
-0.187311868
-0.195747826
-0.203589513
-0.210765916
-0.217219147
-0.22290447
-0.227789944
-0.231855787
-0.235093577
-0.237505256
-0.239102023
-0.239903208
-0.23993517
-0.23923017
-0.237825274
-0.23576131
-0.233081856
-0.229832193
-0.226058269
-0.221805803
-0.217119622
-0.212043267
-0.206618819
-0.200886934
-0.194887024
-0.188657523
-0.182236144
-0.17565992
-0.168964916
-0.162185549
-0.155353549
-0.148496699
-0.141637482
-0.134791617
-0.127966476
-0.121159655
-0.114358167
-0.107538502
-0.100667549
-0.093704315
-0.086602387
-0.07931311
-0.071789341
-0.063989468
-0.055881231
-0.047444911
-0.03867559
-0.029584482
-0.020199457
-0.0105649
-0.000740974
0.009197604
0.019163166
0.02905694
0.038771105
0.048191132
0.057198524
0.06567396
0.073500712
0.080568091
0.086774777
0.092032049
0.096266848
0.099424535
0.101471107
0.10239465
0.102205813
0.100937216
0.098641959
0.095391495
0.091273118
0.086387195
0.08084426
0.074762018
0.068262481
0.061469421
0.054506126
0.047493306
0.040547078
0.033777126
0.027285133
0.021163488
0.015494261
0.010348497
0.005785797
0.001854171
-0.001409853
-0.003980949
-0.005844614
-0.006996725
-0.007442974
-0.007198194
-0.006285634
-0.004736221
-0.002587741
0.000116045
0.003326321
0.006990153
0.011051472
0.01545212
0.02013288
0.02503441
0.030098014
0.035266196
0.040483056
0.045694703
0.050849735
0.055899722
0.060799717
0.065508959
0.069991817
0.074218945
0.078168576
0.081827947
0.085194792
0.0882787
0.091101992
0.093699754
0.096118832
0.098415733
0.100653693
0.102899327
0.105219168
0.107676154
0.110326188
0.113214961
0.116375231
0.119824736
0.123564831
0.127579892
0.131837414
0.136288647
0.140869583
0.14550218
0.150095942
0.154549965
0.158755543
0.162599338
0.165967059
0.168747484
0.170836441
0.172140408
0.172579569
0.172090331
0.170627329
0.168164862
0.164697619
0.160240627
0.154828426
0.148513544
0.141364492
0.133463469
0.124903956
0.115788253
0.106225088
0.096327405
0.086210269
0.075988842
0.06577637
0.05568226
0.045810292
0.036257043
0.02711055
0.018449203
0.01034089
0.002842421
-0.004000767
-0.010154639
-0.015596374
-0.020314013
-0.02430594
-0.027580248
-0.030154083
-0.032052965
-0.033309947
-0.033964602
-0.034061906
-0.033651038
-0.032784186
-0.031515459
-0.029899943
-0.027992892
-0.025849125
-0.023522634
-0.021066263
-0.018531302
-0.015966881
-0.013419127
-0.010930074
-0.008536338
-0.006267518
-0.004144333
-0.002176675
-0.000361989
0.001315541
0.00288483
0.004386927
0.005873317
0.007403495
0.009041859
0.010854087
0.012903274
0.015246099
0.01792923
0.020986202
0.02443492
0.028275971
0.032491869
0.037047199
0.041889481
0.046950415
0.052147346
0.057384923
0.062557014
0.06754896
0.072240155
0.07650697
0.080226014
0.083277738
0.085550206
0.08694275
0.08736935
0.086761642
0.085071381
0.082272193
0.078360446
0.073355205
0.067297358
0.060248016
0.052286288
0.04350672
0.034016612
0.023933329
0.013381642
0.00249112
-0.008606395
-0.019779251
-0.030898445
-0.041840077
-0.052487693
-0.06273436
-0.072484384
-0.081654677
-0.090175755
-0.097992384
-0.105063901
-0.111364148
-0.116880881
-0.121614671
-0.125577424
-0.128790653
-0.131283668
-0.133091895
-0.134255376
-0.134817436
-0.134823563
-0.134320469
-0.133355302
-0.131974954
-0.130225455
-0.128151438
-0.125795709
-0.123198975
-0.120399645
-0.117433699
-0.114334604
-0.111133221
-0.107857694
-0.104533304
-0.101182225
-0.097823059
-0.094470002
-0.091131518
-0.087808636
-0.084493228
-0.081166732
-0.077799716
-0.074352455
-0.070776569
-0.067017654
-0.063018765
-0.058724488
-0.054085135
-0.049060482
-0.043622834
-0.037759443
-0.031474199
-0.024788574
-0.017741919
-0.010391119
-0.002809585
0.004914309
0.012679105
0.020372429
0.027873471
0.035055711
0.041789729
0.047946165
0.053399016
0.058029333
0.061729188
0.064405706
0.065984799
0.066414236
0.065665754
0.063736117
0.060647175
0.056445023
0.051198325
0.044995951
0.037944073
0.030162868
0.021783066
0.012942446
0.003782275
-0.005556231
-0.014935212
-0.024223027
-0.033296601
-0.042043259
-0.050362076
-0.058164755
-0.065376074
-0.071933973
-0.07778943
-0.082906255
-0.087260774
-0.090841297
-0.093647395
-0.095689078
-0.096985862
-0.097565739
-0.097464093
-0.096722693
-0.095388793
-0.093514293
-0.091154848
-0.088368864
-0.085216362
-0.081757767
-0.078052673
-0.074158664
-0.070130283
-0.06601826
-0.061869076
-0.057724777
-0.053622921
-0.049596553
-0.045674116
-0.041879158
-0.038229824
-0.034738144
-0.031409111
-0.028239565
-0.025217023
-0.022318781
-0.01951161
-0.016752071
-0.01398738
-0.011156926
-0.008194498
-0.005031148
-0.001598573
0.002167267
0.006322552
0.010912173
0.015966637
0.021499655
0.027506613
0.033963942
0.040829225
0.048041836
0.055523916
0.063181587
0.070906473
0.07857775
0.086064855
0.093230898
0.099936716
0.106045367
0.111426715
0.115961779
0.119546628
0.122095701
0.123544404
0.12385082
0.12299656
0.120986838
0.117849827
0.113635308
0.108412742
0.102268886
0.095305096
0.087634391
0.079378336
0.070663846
0.061620031
0.052375243
0.043054414
0.033776699
0.024653373
0.015786071
0.007265497
-0.000829391
-0.0084318
-0.015487104
-0.021952471
-0.027796263
-0.032997331
-0.0375443
-0.041434916
-0.044675469
-0.047280091
-0.049269873
-0.050671891
-0.051518186
-0.051844773
-0.051690673
-0.051097024
-0.050106354
-0.04876212
-0.04710839
-0.045189513
-0.043049781
-0.040733123
-0.038282757
-0.035740753
-0.033147427
-0.03054054
-0.027954284
-0.02541817
-0.022955863
-0.020583872
-0.018310092
-0.01613232
-0.01403695
-0.011998095
-0.009977494
-0.007925514
-0.005783255
-0.003485621
-0.000965071
0.001844237
0.005002276
0.008559303
0.012552647
0.017004274
0.021919122
0.027284172
0.033068229
0.039222248
0.045680067
0.052359541
0.059164067
0.065984516
0.072701716
0.079189533
0.085318293
0.090958347
0.095983804
0.100276392
0.103729204
0.106250199
0.107765311
0.108220945
0.107585645
0.105850785
0.103030264
0.099159312
0.094292604
0.088501863
0.081873174
0.074504196
0.066501387
0.057977277
0.049047861
0.039830203
0.030440325
0.020991332
0.011591734
0.00234402
-0.006656509
-0.015322756
-0.023576693
-0.031349976
-0.038584272
-0.045231388
-0.051253217
-0.056621524
-0.061317596
-0.065331832
-0.068663292
-0.071319241
-0.073314678
-0.074671761
-0.075419065
-0.075590725
-0.075225533
-0.074365993
-0.073057316
-0.071346259
-0.069279783
-0.06690385
-0.064262724
-0.061398749
-0.058352359
-0.055162124
-0.051864741
-0.048494903
-0.045084974
-0.041664307
-0.038258016
-0.034885161
-0.031556651
-0.028273268
-0.025024236
-0.021786735
-0.018526671
-0.015200751
-0.011759579
-0.008151304
-0.004325366
-0.000236084
0.004154049
0.008871397
0.01392869
0.019323297
0.025036368
0.031032765
0.037261555
0.043656926
0.050139465
0.056617771
0.062990354
0.069147788
0.074975114
0.080354406
0.085167472
0.089298776
0.092638644
0.095086686
0.096555253
0.096972671
0.096286067
0.094463638
0.091496183
0.087397719
0.082205196
0.075977415
0.068793137
0.060748488
0.051953953
0.042531199
0.032609875
0.022324437
0.011811085
0.00120482
-0.00936328
-0.019768465
-0.029894356
-0.039634649
-0.048894468
-0.057591434
-0.065656517
-0.07303456
-0.079684338
-0.085578188
-0.090701339
-0.095050989
-0.098635226
-0.101471914
-0.103587591
-0.105016309
-0.105798334
-0.105978693
-0.105605648
-0.104729163
-0.103399425
-0.101665541
-0.099574524
-0.09717062
-0.09449496
-0.091585489
-0.088477149
-0.085202212
-0.081790645
-0.078270458
-0.074667979
-0.07100792
-0.067313204
-0.063604492
-0.059899423
-0.056211582
-0.052549293
-0.0489143
-0.045300371
-0.04169215
-0.038064664
-0.034383759
-0.030607506
-0.026688494
-0.022576816
-0.018223501
-0.01358402
-0.008621582
-0.003310102
0.002363291
0.008396462
0.014771281
0.021453327
0.028392167
0.035522137
0.042763564
0.050024296
0.057201471
0.064183561
0.070852827
0.077088279
0.082769198
0.087779069
0.092009543
0.09536408
0.097761155
0.099137025
0.099448013
0.098672087
0.096809549
0.093882708
0.089934598
0.085027039
0.079238315
0.07266057
0.065397015
0.057559104
0.049263831
0.040631129
0.031781334
0.022832738
0.013899392
0.00508929
-0.003497055
-0.01176777
-0.019640503
-0.027043046
-0.03391367
-0.04020123
-0.045865029
-0.050874481
-0.055208637
-0.058855659
-0.061812177
-0.064082548
-0.065678077
-0.066616334
-0.066920595
-0.066619425
-0.065746276
-0.064339061
-0.062439653
-0.060093287
-0.057347922
-0.054253684
-0.050862411
-0.047227243
-0.043402183
-0.039441559
-0.035399395
-0.031328611
-0.027279932
-0.023300609
-0.019433086
-0.015713598
-0.012170716
-0.008823928
-0.005682315
-0.00274335
8.00E-06
0.002599504
0.005070946
0.007472306
0.009860957
0.012298244
0.014845964
0.017563047
0.020502493
0.023708571
0.027214353
0.031039614
0.035189202
0.039651957
0.044400111
0.049389098
0.054557883
0.059830011
0.065115342
0.070312338
0.075310887
0.079995628
0.084249702
0.087958795
0.091015181
0.093321534
0.094794343
0.095366878
0.094991562
0.093641615
0.091311822
0.088018313
0.083797437
0.07870392
0.072808511
0.066195334
0.058959116
0.051202434
0.043033093
0.03456171
0.025899589
0.01715687
0.008440907
-0.000145279
-0.008504539
-0.01654705
-0.024191473
-0.031365726
-0.038007449
-0.044064289
-0.049494057
-0.05426472
-0.05835419
-0.061749922
-0.064448439
-0.066454827
-0.067782223
-0.068451194
-0.068489092
-0.067929401
-0.066811104
-0.065177998
-0.063077987
-0.060562307
-0.057684753
-0.054500955
-0.051067683
-0.047442148
-0.043681266
-0.03984091
-0.035975036
-0.032134553
-0.028365824
-0.024708832
-0.021194995
-0.017844771
-0.014665386
-0.011649208
-0.008773299
-0.006000432
-0.003281452
-0.000558654
0.002230332
0.005148638
0.008256442
0.011607436
0.015245568
0.019202218
0.023494046
0.028121634
0.033068857
0.038302899
0.043774919
0.049421305
0.055165323
0.060918968
0.066584881
0.072058271
0.077228977
0.081983767
0.086208873
0.089792768
0.092629282
0.094620983
0.095682554
0.095743877
0.094752679
0.09267659
0.08950452
0.085247269
0.07993736
0.073628167
0.066392434
0.058320238
0.049516494
0.040098158
0.030191319
0.019928253
0.009444497
-0.001124091
-0.011644287
-0.021988368
-0.032036688
-0.041679819
-0.050820235
-0.05937356
-0.067269355
-0.074451486
-0.080878029
-0.086520791
-0.091364546
-0.095406045
-0.098652909
-0.101122497
-0.102840824
-0.103841434
-0.104164179
-0.103853941
-0.102959286
-0.101531116
-0.099621461
-0.097282606
-0.094566518
-0.091524489
-0.088206895
-0.084662965
-0.080940468
-0.077085298
-0.073140988
-0.069148201
-0.065144162
-0.061161962
-0.057229672
-0.053369298
-0.049595612
-0.045914867
-0.042323433
-0.038806578
-0.035337858
-0.031879438
-0.028383431
-0.02479422
-0.021051679
-0.017095103
-0.012867414
-0.008319237
-0.00341258
0.00187617
0.007554184
0.013611077
0.020018656
0.026731458
0.033687883
0.040811775
0.048014302
0.055196018
0.062248934
0.069058536
0.075505882
0.081469991
0.086830675
0.091471725
0.095284383
0.098170926
0.100048173
0.100850675
0.100533286
0.099072864
0.096469015
0.09274399
0.08794193
0.082127562
0.075384293
0.06781171
0.059522687
0.050640349
0.041295037
0.031621302
0.021755073
0.011830978
0.001979749
-0.007674206
-0.017014871
-0.025936258
-0.034343716
-0.042154964
-0.049300913
-0.055726222
-0.061389589
-0.066263754
-0.070335204
-0.073603502
-0.076080257
-0.07778781
-0.078757681
-0.079028861
-0.078646166
-0.077658924
-0.076119949
-0.074084674
-0.071610387
-0.068755515
-0.065578866
-0.062138825
-0.058492566
-0.054695333
-0.050799847
-0.046855859
-0.042909766
-0.039004228
-0.035177713
-0.031463941
-0.027891139
-0.024481004
-0.021247373
-0.018194684
-0.015316395
-0.012593677
-0.009994739
-0.007475153
-0.004979383
-0.002443468
0.000201569
0.00302615
0.006098609
0.009481683
0.013229003
0.017381773
0.021965841
0.026989428
0.032441721
0.03829242
0.044492159
0.050973648
0.057653396
0.064433887
0.07120605
0.07785185
0.084246955
0.090263545
0.095773383
0.100651233
0.104778544
0.108047198
0.110363132
0.111649641
0.111850202
0.110930595
0.10888015
0.105712117
0.101463165
0.096191995
0.089977142
0.082914193
0.07511261
0.066692296
0.057780015
0.048505899
0.039000221
0.029390554
0.019799346
0.010341873
0.001124523
-0.007756515
-0.016216076
-0.024180376
-0.031587032
-0.038384851
-0.0445335
-0.050003164
-0.054774173
-0.058836609
-0.062189906
-0.064842417
-0.066810911
-0.068119923
-0.068800982
-0.068891699
-0.068434727
-0.067476685
-0.06606724
-0.06425843
-0.062104042
-0.059658944
-0.056978351
-0.054117077
-0.051128802
-0.048065332
-0.04497575
-0.041905513
-0.038895524
-0.035981211
-0.033191597
-0.030548276
-0.028064303
-0.025743175
-0.023578055
-0.021551236
-0.019633837
-0.017785982
-0.015957662
-0.01409034
-0.012119289
-0.009976696
-0.007595352
-0.004912695
-0.00187492
0.001559208
0.005415228
0.0097007
0.014403826
0.019493017
0.024917342
0.030607621
0.036477978
0.042427857
0.048344633
0.054106944
0.05958869
0.064663422
0.069208773
0.073110718
0.076267507
0.078593126
0.080020041
0.080500996
0.080009829
0.078541421
0.07611093
0.072752435
0.068517135
0.063471286
0.057694042
0.051275209
0.044312972
0.036911638
0.029179385
0.021225995
0.013160613
0.005089635
-0.002885206
-0.010668546
-0.01817282
-0.02531935
-0.032039125
-0.038273332
-0.043973671
-0.049102497
-0.053632858
-0.057548371
-0.060842834
-0.063519516
-0.065590206
-0.067074112
-0.067996757
-0.068388969
-0.068286
-0.067726697
-0.066752615
-0.065407006
-0.063733704
-0.061776071
-0.059576134
-0.057174036
-0.054607781
-0.051913149
-0.049123636
-0.046270335
-0.043381811
-0.040483954
-0.037599762
-0.03474887
-0.031946594
-0.029202362
-0.026517768
-0.023884778
-0.021284534
-0.018686984
-0.016051471
-0.013328457
-0.010462338
-0.007395149
-0.004070776
-0.000439242
0.003539362
0.007891679
0.012628805
0.017744982
0.023217197
0.02900548
0.035053708
0.041290855
0.047632653
0.053983584
0.060239107
0.066288127
0.072015716
0.077305891
0.082044339
0.086121156
0.089433687
0.091889386
0.093408543
0.093926778
0.093397241
0.091792398
0.08910515
0.085349151
0.080558435
0.074786378
0.068104065
0.06059819
0.052368667
0.043526091
0.034189095
0.024481614
0.014530133
0.004461022
-0.005601955
-0.015539915
-0.025240829
-0.034601219
-0.043527614
-0.051937742
-0.059761353
-0.066940593
-0.073429962
-0.079196
-0.084216827
-0.088481532
-0.091989385
-0.094748908
-0.096776869
-0.098097178
-0.098739754
-0.098739521
-0.09813562
-0.096970753
-0.095290568
-0.093142955
-0.090577262
-0.087643521
-0.084391821
-0.080871865
-0.077132632
-0.07322204
-0.069186534
-0.065070605
-0.060916178
-0.056761851
-0.052642025
-0.048585943
-0.044616569
-0.040749173
-0.036989763
-0.033333704
-0.029764955
-0.026256341
-0.022770928
-0.019264234
-0.015686847
-0.011987317
-0.008115308
-0.004024884
0.000322383
0.00495474
0.009888118
0.015124648
0.020651857
0.02644252
0.032455009
0.038634086
0.044912045
0.051210151
0.057440279
0.063506697
0.069307983
0.074739177
0.079694301
0.0840693
0.087765331
0.090692227
0.09277188
0.09394125
0.094154745
0.093385868
0.091628044
0.088894585
0.085217823
0.080647585
0.075249221
0.069101361
0.062293523
0.054923672
0.047095784
0.038917512
0.03049802
0.021945961
0.013367659
0.004865542
-0.003463182
-0.011527689
-0.019244609
-0.026539024
-0.033345332
-0.039607922
-0.045281619
-0.050331857
-0.054734534
-0.058475557
-0.061550086
-0.063961558
-0.065720644
-0.066844329
-0.067355269
-0.067281339
-0.066655222
-0.065513899
-0.063898098
-0.061851687
-0.05942099
-0.056653957
-0.053599338
-0.050306023
-0.046822558
-0.043196765
-0.039475351
-0.035703475
-0.031924145
-0.028177411
-0.024499314
-0.020920613
-0.017465369
-0.014149603
-0.010980121
-0.007953434
-0.00505487
-0.0022582
0.000473903
0.003188422
0.005939675
0.008786315
0.011787913
0.015001376
0.018477464
0.022257548
0.026370785
0.030831958
0.035640091
0.040777795
0.046211178
0.051890231
0.057749572
0.06370951
0.069677411
0.075549512
0.081213328
0.086550773
0.091442025
0.095769816
0.09942365
0.102303665
0.104324089
0.105416182
0.105530451
0.10463794
0.102730607
0.09982094
0.09594087
0.091140161
0.085484457
0.07905308
0.071936636
0.064234489
0.056052216
0.047499087
0.038685686
0.029721769
0.020714406
0.011766376
0.002974809
-0.00556999
-0.013785542
-0.021597947
-0.028942465
-0.035763994
-0.042017412
-0.047667638
-0.052689432
-0.057067016
-0.060793513
-0.06387028
-0.066306217
-0.068117143
-0.069325159
-0.069957997
-0.070048413
-0.06963354
-0.068754176
-0.06745397
-0.065778593
-0.063774896
-0.06149013
-0.058971294
-0.056264571
-0.053414802
-0.050464958
-0.047455517
-0.044423614
-0.041401938
-0.038417371
-0.035489365
-0.032628148
-0.029832956
-0.027090639
-0.024375048
-0.021647484
-0.018858308
-0.015949681
-0.012859355
-0.009525186
-0.005889807
-0.001904907
0.002465196
0.007240828
0.012425094
0.018002829
0.023940392
0.030186297
0.036672574
0.043316691
0.050023825
0.056689371
0.063201598
0.0694443
0.075299266
0.080648676
0.085377703
0.089377489
0.09254836
0.09480309
0.09607001
0.096295649
0.095446637
0.093510837
0.090497725
0.086438022
0.081382547
0.075400366
0.068576418
0.061008856
0.05280625
0.044084741
0.034965243
0.025570649
0.016023126
0.006441599
-0.00306049
-0.012377111
-0.021411173
-0.030075715
-0.038294698
-0.046003307
-0.053147828
-0.059685272
-0.065582913
-0.070817821
-0.075376398
-0.079253862
-0.082453601
-0.084986457
-0.086869973
-0.088127594
-0.088787872
-0.088883715
-0.088451701
-0.087531425
-0.086164905
-0.084396049
-0.082270175
-0.079833536
-0.077132838
-0.074214716
-0.071125128
-0.067908664
-0.064607765
-0.061261851
-0.057906279
-0.054571149
-0.051279907
-0.04804779
-0.044880134
-0.041770784
-0.038701068
-0.0356399
-0.032545279
-0.029366893
-0.026049336
-0.022535634
-0.018770893
-0.014705809
-0.010299903
-0.005524388
-0.000364546
0.005178635
0.011087664
0.017328514
0.023851208
0.030590914
0.037469407
0.044396743
0.051273016
0.057990238
0.064434463
0.070488191
0.076033036
0.080952659
0.085135987
0.088480642
0.090896495
0.09230903
0.09266215
0.091920209
0.090069189
0.08711706
0.083093386
0.07804831
0.072050944
0.065187243
0.057557522
0.049273708
0.040456414
0.031231994
0.021729711
0.01207902
0.002406972
-0.007164219
-0.016519434
-0.025552724
-0.034169041
-0.042285512
-0.049832226
-0.056752552
-0.063003001
-0.068552613
-0.073381967
-0.077482016
-0.08085298
-0.083503377
-0.085449213
-0.086713327
-0.08732488
-0.087318906
-0.086735813
-0.08562073
-0.084022746
-0.081994058
-0.079588966
-0.076862695
-0.073870202
-0.070665073
-0.067298554
-0.063818725
-0.060269898
-0.056692231
-0.053121402
-0.04958821
-0.046118012
-0.042729975
-0.039436183
-0.036240751
-0.033138916
-0.03011608
-0.027147017
-0.024195678
-0.021215882
-0.018153025
-0.014946742
-0.01153438
-0.007854988
-0.003853573
0.000514797
0.005281491
0.010461772
0.016053367
0.022036072
0.028372242
0.035007906
0.041874222
0.048889035
0.055958395
0.062978072
0.0698353
0.076410914
0.082582063
0.088225514
0.093221281
0.097456296
0.100828013
0.103247948
0.104644938
0.104967781
0.10418701
0.102295774
0.099309845
0.095266778
0.090224348
0.084258418
0.077460422
0.06993463
0.061795285
0.053163701
0.044165409
0.034927436
0.02557577
0.016233075
0.007016646
-0.001963397
-0.010605677
-0.018818812
-0.026522365
-0.033647497
-0.040137311
-0.045946916
-0.051043288
-0.055404963
-0.059021575
-0.061893251
-0.064029965
-0.065450876
-0.066183612
-0.066263421
-0.065732139
-0.064636894
-0.06302863
-0.060960649
-0.058487371
-0.055663362
-0.052542616
-0.049178081
-0.045621404
-0.041922797
-0.038130933
-0.034292741
-0.030453032
-0.026653854
-0.022933647
-0.019326239
-0.015859748
-0.012555329
-0.009425698
-0.006473482
-0.003689618
-0.001052081
0.001474713
0.003939546
0.006402845
0.00893383
0.011606657
0.014496017
0.017672551
0.021198356
0.025122887
0.029479541
0.034283032
0.039527589
0.045186018
0.051209656
0.057529194
0.064056327
0.070686139
0.077299995
0.08376878
0.089956479
0.095724141
0.100934132
0.105454444
0.109162916
0.111951332
0.11372921
0.114426939
0.113997996
0.11242019
0.109695986
0.105852014
0.100937883
0.095024357
0.088201017
0.080573521
0.072260584
0.063390785
0.054099313
0.044524739
0.034805889
0.025078883
0.015474273
0.006114282
-0.002889776
-0.0114397
-0.01945212
-0.026859642
-0.033611375
-0.039672856
-0.045025525
-0.049665906
-0.05360456
-0.056864748
-0.059480703
-0.061495571
-0.062959244
-0.063926272
-0.064453985
-0.064600953
-0.064425823
-0.063986422
-0.063339
-0.062537583
-0.061633388
-0.060674182
-0.059703516
-0.058759926
-0.057876272
-0.057079355
-0.056389789
-0.055822033
-0.055384502
-0.055079581
-0.054903478
-0.054845935
-0.054889822
-0.055010666
-0.055176226
-0.055346329
-0.055472969
-0.055500677
-0.055367494
-0.055006721
-0.054349391
-0.053327259
-0.05187612
-0.049939196
-0.047470364
-0.044437077
-0.040822774
-0.036628588
-0.031874308
-0.026598662
-0.020859022
-0.014730602
-0.008305189
-0.001689347
0.004997924
0.011628063
0.018066358
0.024175871
0.029821653
0.034875111
0.039218382
0.042748437
0.04538054
0.047050883
0.047718322
0.047365201
0.045997422
0.043643852
0.04035513
0.036201938
0.031272748
0.025671093
0.019512455
0.012920943
0.006025881
-0.001041582
-0.008151692
-0.015178995
-0.022004905
-0.028519999
-0.034626011
-0.040237408
-0.045282538
-0.049704327
-0.053460497
-0.056523231
-0.058878373
-0.060524365
-0.061471092
-0.061738693
-0.061356328
-0.060360936
-0.058795984
-0.056710223
-0.054156474
-0.051190462
-0.047869726
-0.04425257
-0.040397011
-0.036359836
-0.03219584
-0.027957237
-0.023693274
-0.019450036
-0.01527032
-0.01119336
-0.0072543
-0.003483433
9.47E-05
0.003462461
0.006609998
0.009536746
0.012252732
0.014779963
0.017153315
0.01942059
0.02164155
0.023885868
0.026230007
0.028753225
0.031533032
0.034640467
0.038135541
0.042063254
0.0464505
0.051304093
0.056609931
0.062333127
0.068418844
0.074793652
0.081367432
0.088035801
0.094682895
0.101184365
0.107410528
0.113229561
0.118510582
0.123126541
0.126956941
0.12989052
0.13182804
0.132685202
0.13239557
0.130913281
0.128215164
0.124301945
0.119198376
0.112952351
0.105633166
0.097329157
0.088144905
0.078198209
0.06761699
0.056536304
0.045095491
0.033435365
0.021695423
0.010011158
-0.001488434
-0.01268305
-0.023462894
-0.033730019
-0.043399177
-0.052398223
-0.060668161
-0.068162992
-0.074849423
-0.08070639
-0.085724413
-0.089904813
-0.093258871
-0.095806931
-0.097577442
-0.098605991
-0.098934398
-0.098609843
-0.097683999
-0.096212108
-0.094252008
-0.091863132
-0.089105495
-0.086038726
-0.082721214
-0.079209456
-0.075557551
-0.07181673
-0.068034742
-0.064254946
-0.060515074
-0.056845819
-0.053269433
-0.049798386
-0.046434075
-0.043165694
-0.03996966
-0.036809951
-0.033639595
-0.030403341
-0.027041178
-0.023492138
-0.019698061
-0.015607159
-0.011177201
-0.006378154
-0.001194216
0.004374705
0.010312061
0.016584292
0.023141031
0.029915976
0.036828335
0.043784728
0.050681417
0.057406843
0.063844358
0.069875006
0.075380374
0.08024556
0.084362219
0.087631613
0.089967633
0.091299695
0.091575355
0.090762429
0.0888504
0.085850807
0.081796559
0.076740405
0.070752865
0.063919808
0.056339833
0.04812152
0.039380675
0.030237702
0.020815167
0.011235523
0.001618982
-0.00791854
-0.017267385
-0.026325925
-0.035002074
-0.043214527
-0.050893697
-0.057982219
-0.064435043
-0.07021915
-0.075312955
-0.07970542
-0.083395006
-0.086388595
-0.088700419
-0.090351061
-0.091366552
-0.091777604
-0.091618938
-0.090928712
-0.089747966
-0.088119985
-0.086089554
-0.083702138
-0.081003033
-0.078036617
-0.074845787
-0.0714717
-0.067953716
-0.064329325
-0.060633919
-0.056900357
-0.053158348
-0.049433682
-0.045747299
-0.042114214
-0.038542414
-0.035031746
-0.031572857
-0.028146472
-0.024723355
-0.021265201
-0.017726501
-0.014057239
-0.010206253
-0.006124928
-0.001770834
0.002889041
0.007875599
0.013195608
0.018840494
0.024785961
0.030992244
0.037404812
0.043955449
0.050563646
0.057138234
0.063579185
0.069779652
0.075628336
0.081012246
0.085819845
0.089944441
0.09328758
0.095762292
0.097295963
0.097832709
0.097335279
0.095786502
0.093190139
0.089570872
0.084973467
0.079461304
0.073114444
0.066027252
0.05830569
0.050064454
0.04142404
0.032507825
0.023439239
0.01433914
0.005323546
-0.003498221
-0.012025023
-0.020165055
-0.027836642
-0.034968759
-0.041501414
-0.047386003
-0.052585626
-0.057075234
-0.060841441
-0.063881969
-0.066204811
-0.067827161
-0.068774268
-0.069078396
-0.068777904
-0.067916382
-0.066541754
-0.064705387
-0.06246121
-0.059864745
-0.056972101
-0.05383903
-0.050520187
-0.047068523
-0.043534755
-0.039966889
-0.036409803
-0.032904809
-0.029489155
-0.026195426
-0.023050776
-0.020075926
-0.017283989
-0.014679268
-0.012256236
-0.009998766
-0.007879678
-0.005860741
-0.003893373
-0.001920215
0.000122402
0.002301391
0.004683554
0.007332155
0.010303565
0.013644088
0.017387167
0.021551146
0.02613776
0.031131362
0.03649879
0.042189734
0.0481375
0.054260208
0.060462401
0.066637011
0.072667721
0.078431891
0.083804044
0.08865985
0.092880359
0.096356246
0.098991799
0.100708347
0.101446852
0.10116947
0.099860171
0.097524574
0.094189032
0.089899076
0.084717373
0.078721397
0.07200101
0.064656076
0.05679412
0.048527955
0.039973315
0.0312466
0.022462747
0.013733217
0.005164127
-0.003145451
-0.011105004
-0.018633885
-0.025662332
-0.03213217
-0.037997131
-0.043222833
-0.047786479
-0.051676308
-0.054890892
-0.05743834
-0.059335504
-0.060607208
-0.06128548
-0.06140871
-0.061020672
-0.06016937
-0.058905797
-0.057282711
-0.055353556
-0.053171563
-0.050789024
-0.048256613
-0.045622811
-0.04293349
-0.040231597
-0.037556814
-0.034945089
-0.03242793
-0.030031358
-0.027774531
-0.025668124
-0.023712662
-0.021897243
-0.020199046
-0.018583622
-0.017005686
-0.015410407
-0.013735348
-0.011913143
-0.009874633
-0.007552196
-0.004883086
-0.001812734
0.001702091
0.005690401
0.010164526
0.015118244
0.020525646
0.026340905
0.032498953
0.038916923
0.04549619
0.052124875
0.058680817
0.065035053
0.071055726
0.076612202
0.08157918
0.085840609
0.089293253
0.091849777
0.093441183
0.094018538
0.093553988
0.092040996
0.089493871
0.085946745
0.081452085
0.076078804
0.069910107
0.063041145
0.055576479
0.047627468
0.03930975
0.030740895
0.022038175
0.013316364
0.004685614
-0.003750513
-0.01189674
-0.019667478
-0.026987919
-0.033794806
-0.040036867
-0.045674933
-0.050681792
-0.055041775
-0.058750071
-0.06181182
-0.064241089
-0.0660598
-0.067296595
-0.06798571
-0.068165921
-0.067879621
-0.067171947
-0.06608989
-0.064681379
-0.062994429
-0.061076348
-0.058973049
-0.056728517
-0.054384469
-0.051980106
-0.049551779
-0.04713247
-0.044751107
-0.042431756
-0.040192682
-0.038045269
-0.035992778
-0.034029054
-0.032137428
-0.030290178
-0.028448848
-0.026565563
-0.02458535
-0.022449292
-0.020098188
-0.017476302
-0.014534992
-0.011236022
-0.007554314
-0.003479899
0.000981053
0.005805995
0.010956382
0.016378536
0.022004853
0.027755287
0.033539101
0.03925685
0.044802615
0.050066575
0.054937812
0.059307243
0.06307069
0.066132089
0.068406588
0.069823246
0.070327209
0.069881326
0.068467083
0.066084881
0.062753758
0.058510682
0.053409385
0.047518741
0.040920725
0.033708128
0.025982178
0.017850156
0.009423009
0.000813014
-0.007868449
-0.016512939
-0.025016747
-0.033282409
-0.041219924
-0.048747796
-0.055793869
-0.062295937
-0.068202135
-0.073471229
-0.078072796
-0.081987198
-0.085205287
-0.08772787
-0.089564987
-0.090735019
-0.091263703
-0.091183123
-0.090530715
-0.089348301
-0.087681182
-0.085577293
-0.083086392
-0.080259306
-0.077147247
-0.073801201
-0.070271407
-0.066606861
-0.062854771
-0.05905999
-0.055264491
-0.051506897
-0.04782206
-0.044240485
-0.040787371
-0.037481187
-0.034331984
-0.0313397
-0.028492705
-0.025766876
-0.023125638
-0.020521273
-0.017897278
-0.015191359
-0.012338796
-0.009276074
-0.005944656
-0.002294671
0.001711851
0.006098508
0.01087297
0.016026249
0.021532698
0.027350618
0.033423358
0.039680773
0.046040866
0.05241152
0.058692259
0.064776095
0.070551587
0.075905275
0.080724567
0.084901052
0.088334143
0.090934841
0.092629318
0.093361929
0.093097388
0.091821934
0.089543444
0.086290545
0.082110998
0.077069613
0.071245891
0.064731466
0.057627499
0.050042167
0.042088322
0.033881239
0.025536451
0.017167643
0.008884649
0.000791614
-0.007014678
-0.014446283
-0.021425342
-0.027884998
-0.033770016
-0.039037138
-0.043655155
-0.047604616
-0.050877261
-0.053475274
-0.055410411
-0.056703018
-0.057381052
-0.057479095
-0.057037339
-0.056100464
-0.054716414
-0.052935161
-0.050807611
-0.048384668
-0.045716437
-0.042851573
-0.039836813
-0.036716665
-0.033533191
-0.030325796
-0.027130973
-0.023982019
-0.020908596
-0.01793605
-0.015084511
-0.012367912
-0.009793048
-0.007358624
-0.005054253
-0.002859561
-0.00074375
0.001334112
0.003423917
0.00558249
0.007870818
0.010350748
0.013081423
0.016115693
0.019496708
0.023254964
0.02740602
0.031948904
0.036865164
0.042118486
0.047654837
0.053403135
0.059276547
0.065174496
0.070985379
0.076589883
0.081864778
0.086687057
0.09093819
0.094508138
0.097298746
0.099226358
0.100223819
0.100242187
0.099252139
0.09724472
0.094231276
0.090242597
0.085327437
0.079550634
0.072991041
0.065739415
0.057896267
0.049569632
0.040872742
0.031921672
0.022833064
0.01372197
0.00469987
-0.004127155
-0.012660088
-0.02080845
-0.028491487
-0.035639136
-0.042192781
-0.04810582
-0.053343942
-0.057885087
-0.061719108
-0.06484712
-0.067280537
-0.069039911
-0.070153647
-0.0706567
-0.070589317
-0.069995871
-0.068923809
-0.067422703
-0.065543365
-0.063336997
-0.060854364
-0.058144991
-0.055256408
-0.05223349
-0.049117883
-0.045947477
-0.042755879
-0.039571882
-0.0364188
-0.033313491
-0.030264955
-0.027272671
-0.024324998
-0.021398056
-0.018455357
-0.015448427
-0.01231852
-0.008999406
-0.005421224
-0.001515202
0.002781226
0.007519491
0.012735677
0.018447348
0.024651434
0.031323046
0.038415191
0.045859462
0.053567726
0.061434589
0.069340348
0.077154225
0.084737736
0.091947974
0.098640701
0.104673402
0.109908622
0.114217637
0.117484338
0.119609125
0.120512551
0.120138254
0.118454817
0.115456485
0.111162925
0.105618177
0.09888897
0.091062558
0.082244196
0.072554313
0.062125439
0.051098937
0.039621619
0.027842418
0.015909335
0.003966676
-0.007847372
-0.019402743
-0.030579094
-0.041267126
-0.05136972
-0.060802873
-0.069496387
-0.077394293
-0.08445495
-0.09065087
-0.095968244
-0.100406135
-0.10397534
-0.106697031
-0.108601403
-0.109726452
-0.110116894
-0.10982315
-0.108900282
-0.107406789
-0.105403335
-0.10295149
-0.100112559
-0.096946693
-0.093512348
-0.089865896
-0.086061235
-0.082149344
-0.078177769
-0.074189973
-0.070224609
-0.066314685
-0.062486537
-0.058758524
-0.055139519
-0.051627297
-0.048207171
-0.044851412
-0.041519763
-0.038160812
-0.034713794
-0.031110852
-0.027280016
-0.023148997
-0.018649649
-0.01372272
-0.008322407
-0.002420296
0.003991527
0.010898429
0.018262402
0.026022454
0.034096091
0.042381742
0.050761849
0.059106255
0.067275516
0.075123993
0.082502839
0.089263173
0.095259671
0.100354588
0.10442207
0.107352451
0.109056137
0.109466764
0.108543388
0.10627156
0.102663313
0.09775631
0.091612394
0.084315612
0.075969663
0.066694906
0.056625103
0.045904079
0.03468247
0.023114675
0.011356004
-0.000439996
-0.01212404
-0.023553434
-0.034594233
-0.045123184
-0.055029396
-0.064215663
-0.072599383
-0.080113086
-0.086704631
-0.092337168
-0.096988912
-0.10065274
-0.103335661
-0.105058159
-0.105853264
-0.105765222
-0.104847872
-0.103162963
-0.10077856
-0.097767571
-0.09420636
-0.090173371
-0.085747793
-0.081008364
-0.076032287
-0.070894218
-0.065665318
-0.060412428
-0.055197369
-0.050076301
-0.045099025
-0.040308217
-0.035738647
-0.031416337
-0.02735756
-0.023567696
-0.020039988
-0.01675433
-0.013676386
-0.010757519
-0.007935842
-0.005138439
-0.002284502
0.000710863
0.003932307
0.007459469
0.011362081
0.015695483
0.020497095
0.025784113
0.03155234
0.037775913
0.044407649
0.051379839
0.058605412
0.065979421
0.073380905
0.080675364
0.087718188
0.094359019
0.100446598
0.105833745
0.110382246
0.113967489
0.116482667
0.117842316
0.117984956
0.116874767
0.114502362
0.110884731
0.10606438
0.100107751
0.093103025
0.085157348
0.076393593
0.066946827
0.056960685
0.046583824
0.035966639
0.02525824
0.014603536
0.004140305
-0.006003492
-0.015711824
-0.024882035
-0.033425809
-0.041269826
-0.048356068
-0.054641708
-0.060098615
-0.064712696
-0.068483127
-0.071421452
-0.073550498
-0.074903144
-0.075520911
-0.075452411
-0.074751792
-0.073477325
-0.071690155
-0.069453192
-0.066830092
-0.063884268
-0.060677917
-0.057271205
-0.053721704
-0.050083956
-0.046409044
-0.042744143
-0.039132112
-0.035611086
-0.03221398
-0.028967739
-0.025892222
-0.022998722
-0.020288266
-0.017749926
-0.015359504
-0.013079015
-0.010857321
-0.008632064
-0.006332598
-0.003883543
-0.001208765
0.001764348
0.00510064
0.008853268
0.013060356
0.017742358
0.022900266
0.028514776
0.034546323
0.040935838
0.047606077
0.054463445
0.061400146
0.068296607
0.075024302
0.081449079
0.08743503
0.09284873
0.097563601
0.101464152
0.104449911
0.106438815
0.10736982
0.107204505
0.105927636
0.103546801
0.100091239
0.095610059
0.090170092
0.083853505
0.076755261
0.068980498
0.060642001
0.051857837
0.042749141
0.033438002
0.024045365
0.01468891
0.005480936
-0.003473502
-0.012078065
-0.020246151
-0.027901581
-0.034979093
-0.041424738
-0.047196201
-0.052262951
-0.056606136
-0.060218232
-0.063102472
-0.06527201
-0.066748819
-0.067562395
-0.067748435
-0.06734766
-0.066404966
-0.064968879
-0.06309115
-0.060826256
-0.058230633
-0.055361643
-0.052276438
-0.049030902
-0.045678823
-0.042271348
-0.038856627
-0.035479437
-0.032180559
-0.028995741
-0.025954109
-0.023076176
-0.020371782
-0.017838308
-0.015459296
-0.013203578
-0.011025266
-0.008864941
-0.006652124
-0.00430891
-0.001754393
0.001090498
0.004298072
0.007929143
0.012028872
0.016623518
0.021718179
0.027295492
0.033315324
0.039715448
0.046413141
0.053307543
0.060282512
0.067209749
0.073952
0.08036626
0.086306983
0.091629461
0.096193498
0.099867331
0.10253162
0.104083364
0.104439627
0.103540851
0.101353394
0.09787102
0.093115188
0.087134107
0.080000666
0.071809544
0.06267388
0.05272177
0.042092734
0.030934168
0.019397854
0.007636547
-0.004199301
-0.015964565
-0.027522116
-0.03874508
-0.04951862
-0.059741124
-0.069324709
-0.078195164
-0.086291641
-0.09356637
-0.099984475
-0.105523819
-0.110174732
-0.113939547
-0.116831891
-0.118875778
-0.12010451
-0.120559446
-0.120288719
-0.119345944
-0.117788888
-0.115678232
-0.113076536
-0.110047403
-0.106654771
-0.102962252
-0.099032454
-0.094926265
-0.090702179
-0.086415691
-0.082118675
-0.077858705
-0.073678245
-0.06961368
-0.065694178
-0.06194037
-0.058362843
-0.054960617
-0.051719786
-0.048612526
-0.045596714
-0.042616493
-0.039603963
-0.036481936
-0.033167596
-0.029576928
-0.025629601
-0.021253827
-0.016390813
-0.010998545
-0.0050547
0.001441323
0.008467338
0.015978333
0.02390737
0.032167173
0.040652315
0.049241887
0.057802422
0.066190974
0.074258426
0.081853108
0.0888248
0.09502908
0.100331788
0.104613285
0.107772271
0.109729071
0.110428212
0.109840048
0.107961353
0.10481494
0.100448472
0.094932548
0.088358136
0.080833585
0.072481412
0.063434958
0.053834916
0.043825922
0.03355346
0.023161113
0.01278819
0.002567638
-0.007375848
-0.016927542
-0.02598419
-0.034455268
-0.042263966
-0.049347842
-0.055659068
-0.061164231
-0.065843778
-0.069691191
-0.072711952
-0.074922339
-0.076348246
-0.077024005
-0.076991096
-0.076296714
-0.074992422
-0.073133016
-0.070775649
-0.067979142
-0.064803318
-0.061308232
-0.05755334
-0.053596663
-0.049494049
-0.045298625
-0.041060449
-0.036826241
-0.032639021
-0.028537509
-0.024555351
-0.020720166
-0.017052324
-0.013563405
-0.010254711
-0.007116228
-0.004126049
-0.00125015
0.001557228
0.004352224
0.007198908
0.010165931
0.013322516
0.016734195
0.020458686
0.024542234
0.029016566
0.033896593
0.039178957
0.044841402
0.050842803
0.05712363
0.06360679
0.070198894
0.076791962
0.083265644
0.089490193
0.095330231
0.100649062
0.105313265
0.109197361
0.112188287
0.114189413
0.115123981
0.114937811
0.113601129
0.111109315
0.107482492
0.102764058
0.097018463
0.090328495
0.082792325
0.074520458
0.065632771
0.05625573
0.046519723
0.036556442
0.026496371
0.016466452
0.006587946
-0.003025495
-0.012269516
-0.021050381
-0.029285971
-0.036906475
-0.04385481
-0.050086849
-0.055571457
-0.060290283
-0.064237277
-0.067417981
-0.069848642
-0.071555215
-0.072572259
-0.072941757
-0.072711854
-0.071935404
-0.070668393
-0.068968425
-0.066893382
-0.064500182
-0.061843648
-0.058975667
-0.055944791
-0.05279621
-0.049571931
-0.046310909
-0.043048947
-0.039818219
-0.036646348
-0.033555013
-0.030558082
-0.027659443
-0.024850941
-0.022110939
-0.019403931
-0.016681332
-0.01388345
-0.010942555
-0.007786918
-0.004345493
-0.000552761
0.003646699
0.008294181
0.013413647
0.01900957
0.02506584
0.031545562
0.038391626
0.045528032
0.052861894
0.060285907
0.067681005
0.074919061
0.081865677
0.088383228
0.094334245
0.099585106
0.104009946
0.107494607
0.109940349
0.111267073
0.111415977
0.110351487
0.108062227
0.104561023
0.09988413
0.094089814
0.087256397
0.079479859
0.070871056
0.061552653
0.05165592
0.041317529
0.030676411
0.019870769
0.009035379
-0.001700741
-0.012216272
-0.022399201
-0.032148126
-0.041373375
-0.049997872
-0.057957682
-0.065202199
-0.071694048
-0.077408747
-0.082334088
-0.086469267
-0.089823874
-0.092416869
-0.094275621
-0.095434964
-0.095936166
-0.095825753
-0.095154256
-0.093974959
-0.092342713
-0.090312745
-0.08793943
-0.085275139
-0.08236935
-0.079268119
-0.076013901
-0.072645619
-0.069198898
-0.065706306
-0.062197445
-0.058698713
-0.055232609
-0.051816599
-0.048461616
-0.045170263
-0.041934995
-0.038736762
-0.035544514
-0.032315888
-0.028999227
-0.025536882
-0.021869243
-0.017938841
-0.013694188
-0.009093295
-0.004106782
0.001279604
0.007063211
0.013223424
0.019721322
0.026500094
0.033486203
0.040591176
0.047713809
0.054742675
0.061558803
0.068038466
0.074056058
0.079487108
0.084211504
0.088116985
0.091102783
0.093083089
0.093990101
0.093776544
0.092417553
0.089911693
0.086280943
0.081569705
0.07584301
0.069184208
0.061692348
0.05347928
0.044666557
0.035382214
0.025757633
0.015924611
0.006012697
-0.003853217
-0.013555034
-0.022983265
-0.032038431
-0.040631977
-0.048686775
-0.056137354
-0.062929931
-0.069022282
-0.074383554
-0.078993953
-0.082844252
-0.08593517
-0.088276816
-0.089888184
-0.090796617
-0.091037152
-0.090651722
-0.089688199
-0.08819929
-0.086241253
-0.083872442
-0.081151786
-0.078137383
-0.074885315
-0.071448687
-0.067876903
-0.064215231
-0.06050464
-0.05678178
-0.053079018
-0.049424474
-0.045841869
-0.042350013
-0.038961924
-0.035683831
-0.032514246
-0.029442936
-0.026449669
-0.02350313
-0.020560668
-0.017569204
-0.014467204
-0.011187624
-0.007661673
-0.003823179
0.000386861
0.005015977
0.010096534
0.015642907
0.021649728
0.02809132
0.034922182
0.042078216
0.049478423
0.057026826
0.064614434
0.072121245
0.079418415
0.08637086
0.092840567
0.09869064
0.103789682
0.108016125
0.111262291
0.113438068
0.114474034
0.114323814
0.112965455
0.110401712
0.106659303
0.101787373
0.095855417
0.088950835
0.081176221
0.072646497
0.063485964
0.053825449
0.043799589
0.033544229
0.023193969
0.012879901
0.002727521
-0.007145228
-0.016629712
-0.025628046
-0.034054108
-0.041834166
-0.048907178
-0.055224854
-0.060751596
-0.065464427
-0.069352861
-0.072418608
-0.074675009
-0.076146137
-0.076865576
-0.076875016
-0.076222758
-0.074962155
-0.073150082
-0.070845583
-0.068108698
-0.064999472
-0.061577199
-0.057899957
-0.054024292
-0.050004919
-0.045894465
-0.041743213
-0.037598775
-0.03350569
-0.029504977
-0.025633511
-0.021923035
-0.018398723
-0.015077371
-0.011965418
-0.009057097
-0.006332974
-0.00375923
-0.001288044
0.00114077
0.003596937
0.006155865
0.008894115
0.011884718
0.015192749
0.018871416
0.022958838
0.027475537
0.03242269
0.037781163
0.043511292
0.049553388
0.055829
0.062242911
0.068685615
0.075036069
0.081164816
0.086937563
0.09221914
0.096877641
0.100788635
0.103839286
0.10593217
0.106988618
0.106951363
0.105786313
0.103483459
0.100056911
0.095543978
0.09000331
0.083512404
0.076164755
0.068066886
0.059335385
0.050094088
0.040471417
0.03059787
0.02060366
0.010616528
0.000759725
-0.008849896
-0.018103693
-0.026902834
-0.035159611
-0.042798534
-0.049757216
-0.055987008
-0.061453256
-0.066135112
-0.070024966
-0.073127635
-0.075459285
-0.077046135
-0.077923054
-0.078132142
-0.077721231
-0.07674229
-0.075249827
-0.073299496
-0.070947059
-0.068247739
-0.065255837
-0.062024489
-0.05860546
-0.055048848
-0.051402745
-0.047712794
-0.044021595
-0.04036788
-0.03678545
-0.03330179
-0.029936409
-0.026698973
-0.023587382
-0.020586225
-0.017666193
-0.014784798
-0.011888123
-0.008913219
-0.005791115
-0.00245058
0.001177453
0.005155208
0.009533618
0.014348542
0.019617893
0.025339749
0.031491304
0.038028636
0.044887372
0.051984172
0.059218801
0.066476522
0.073630708
0.080545703
0.087080046
0.093090195
0.098434687
0.10297848
0.106597239
0.109181384
0.110639789
0.11090299
0.109925676
0.107688264
0.10419741
0.099485467
0.093608984
0.086646392
0.078695093
0.069868164
0.060290884
0.050097305
0.03942697
0.028421767
0.01722301
0.005968838
-0.005208054
-0.016182492
-0.026838754
-0.037072214
-0.046790508
-0.055914142
-0.06437663
-0.072124241
-0.079115528
-0.08532084
-0.090721861
-0.095311114
-0.099091346
-0.102074788
-0.104282314
-0.105742564
-0.106490944
-0.106568469
-0.106020599
-0.104896146
-0.103246266
-0.10112352
-0.098581078
-0.09567208
-0.092449161
-0.088964088
-0.085267406
-0.081408135
-0.077433547
-0.073388891
-0.069316836
-0.065256624
-0.061243102
-0.057305711
-0.053467367
-0.049743057
-0.046138104
-0.042646308
-0.039248478
-0.035911798
-0.032590323
-0.029226706
-0.025755057
-0.022104777
-0.018205101
-0.013989973
-0.009402814
-0.004400755
0.001041968
0.006931653
0.013253798
0.019972745
0.027032226
0.034356785
0.041853895
0.049416528
0.056925959
0.064254761
0.071269962
0.077836277
0.083819259
0.089088429
0.093520556
0.097003196
0.099438429
0.10074656
0.100869369
0.09977247
0.097446534
0.093907401
0.089195301
0.08337333
0.076525281
0.068752952
0.060173083
0.050913967
0.041111908
0.030907732
0.020443541
0.00985979
-0.000707326
-0.011128189
-0.021281667
-0.031056576
-0.040352738
-0.049081748
-0.057167524
-0.064546666
-0.071168621
-0.076995676
-0.082002766
-0.086176994
-0.089516859
-0.092031271
-0.093738392
-0.094664475
-0.094842845
-0.094313013
-0.093119861
-0.091312847
-0.088945206
-0.086073064
-0.082754463
-0.079048376
-0.075013843
-0.070709286
-0.066192
-0.061517734
-0.056740282
-0.0519111
-0.047078938
-0.042289444
-0.037584575
-0.03300175
-0.028572739
-0.024322315
-0.020266659
-0.016411544
-0.012750503
-0.009263357
-0.005915725
-0.002659928
0.000562907
0.003820039
0.007183775
0.01072759
0.014521821
0.018629254
0.02310102
0.027973161
0.033264057
0.038972753
0.045078198
0.051539301
0.058295617
0.065268512
0.072362729
0.079468291
0.086462794
0.093214297
0.099584886
0.105434849
0.110627287
0.115032802
0.118533901
0.121028973
0.122435743
0.122693995
0.121767333
0.119643918
0.116336272
0.111880211
0.106333039
0.099771225
0.092287748
0.083989303
0.074993429
0.065425606
0.055416369
0.045098559
0.034604769
0.024064994
0.013604549
0.003342363
-0.006610296
-0.016150803
-0.025186034
-0.033633128
-0.041420272
-0.048487527
-0.054787555
-0.060286039
-0.06496182
-0.068806752
-0.071825155
-0.074032744
-0.075455295
-0.076127283
-0.076090577
-0.075393192
-0.07408816
-0.072232532
-0.069886457
-0.06711229
-0.063973669
-0.06053459
-0.0568585
-0.05300749
-0.049041578
-0.045018063
-0.040990931
-0.037010341
-0.033122023
-0.029366443
-0.025777821
-0.022383139
-0.019201125
-0.016241054
-0.013501371
-0.01096829
-0.00861469
-0.006399684
-0.004269214
-0.002157757
8.92E-06
0.002310173
0.004826226
0.007633618
0.010800531
0.014382558
0.018419187
0.02293107
0.027918009
0.033357677
0.039205232
0.045393827
0.051835892
0.058425021
0.065038501
0.071540605
0.07778671
0.083628073
0.088916962
0.093511762
0.097281757
0.100111404
0.101904134
0.102585592
0.102105971
0.100441156
0.097592735
0.093587123
0.088474054
0.082324591
0.075228776
0.067292952
0.058636774
0.049390009
0.039689273
0.029674807
0.019487391
0.009265507
-0.000857153
-0.010753859
-0.020306773
-0.029408626
-0.037964123
-0.04589105
-0.053121116
-0.059600403
-0.065289325
-0.070162146
-0.07420626
-0.077421395
-0.079818678
-0.081419603
-0.082254982
-0.082363919
-0.081792719
-0.080593718
-0.078824053
-0.076544431
-0.073817989
-0.0707093
-0.067283473
-0.063605296
-0.059738378
-0.055744312
-0.05168192
-0.047606589
-0.043569619
-0.039617494
-0.035791062
-0.032124745
-0.028645771
-0.025373247
-0.02231685
-0.019475184
-0.016834092
-0.014365321
-0.01202595
-0.009758879
-0.007494673
-0.005154886
-0.002656472
8.34E-05
0.003142528
0.006589238
0.010478315
0.014847666
0.019715747
0.025079893
0.030915511
0.037176041
0.043793648
0.050680594
0.057731218
0.064824461
0.071826787
0.078595403
0.084981823
0.090835795
0.096009495
0.100361861
0.103762901
0.106097712
0.107269918
0.107204407
0.105849571
0.10317916
0.099193614
0.093920592
0.087414507
0.079755007
0.071044488
0.06140487
0.050973851
0.039900816
0.028342634
0.01645961
0.004411768
-0.007644522
-0.01955958
-0.03119299
-0.04241563
-0.05311134
-0.063178328
-0.072530278
-0.081097033
-0.088824739
-0.095675448
-0.101626273
-0.106668211
-0.11080478
-0.114050628
-0.116430262
-0.117976919
-0.118731466
-0.118741203
-0.118058527
-0.116739502
-0.114842474
-0.11242691
-0.109552456
-0.106278145
-0.102661698
-0.098758885
-0.094622966
-0.090304258
-0.085849914
-0.081303929
-0.076707302
-0.072098221
-0.067512097
-0.062981298
-0.058534495
-0.054195651
-0.049982686
-0.045905969
-0.041966729
-0.038155419
-0.034450282
-0.03081671
-0.02720778
-0.023566029
-0.019826323
-0.015919682
-0.011777727
-0.007337277
-0.002544749
0.002639904
0.008240136
0.014260862
0.020687531
0.027485978
0.034602999
0.041967588
0.049492672
0.057077182
0.064608318
0.071964003
0.079015561
0.085630777
0.091677431
0.097027292
0.101560273
0.105168356
0.107759031
0.109258225
0.109612774
0.108792243
0.106789902
0.103622767
0.099330823
0.093975513
0.087637602
0.080414539
0.072417508
0.06376826
0.05459581
0.04503313
0.035214007
0.025270127
0.015328428
0.005508879
-0.004077258
-0.013328632
-0.022154566
-0.030475453
-0.038222944
-0.045340018
-0.051780929
-0.057511006
-0.062506306
-0.06675311
-0.070247311
-0.072993714
-0.075005297
-0.076302478
-0.07691236
-0.076867901
-0.076207178
-0.074972836
-0.073211593
-0.070973619
-0.068311696
-0.065280201
-0.061933992
-0.058327356
-0.054513146
-0.050542154
-0.046462694
-0.042320383
-0.038157999
-0.034015269
-0.029928479
-0.025929891
-0.022046968
-0.018301458
-0.014708251
-0.011273921
-0.007994928
-0.004855755
-0.001827613
0.001131528
0.004075281
0.007065924
0.010170798
0.013458277
0.016993418
0.020833534
0.025024111
0.029595393
0.034559866
0.039910727
0.045621378
0.051645803
0.057919628
0.064361684
0.070875871
0.077353255
0.083674469
0.08971256
0.095336301
0.100413933
0.104817223
0.108425668
0.111130625
0.112839184
0.113477651
0.112994408
0.111361862
0.108577311
0.104662697
0.099663301
0.093645581
0.086694453
0.078910283
0.070405755
0.061302732
0.051729199
0.041816353
0.031695894
0.021497552
0.01134686
0.001363164
-0.008342108
-0.017666938
-0.026519906
-0.034821029
-0.042502208
-0.049507315
-0.055792008
-0.061323445
-0.066079946
-0.070050577
-0.073234594
-0.075640895
-0.077287515
-0.07820107
-0.078416027
-0.077973822
-0.076921857
-0.075312392
-0.073201424
-0.070647556
-0.06771087
-0.064451825
-0.060930307
-0.057204866
-0.053332193
-0.049366806
-0.045360825
-0.041363683
-0.037421696
-0.03357747
-0.029869116
-0.026329264
-0.022983945
-0.019851354
-0.016940556
-0.014250149
-0.011766888
-0.009464476
-0.007303023
-0.005229547
-0.003179623
-0.001080059
0.001147496
0.003582162
0.006299042
0.009364544
0.012832196
0.016739128
0.021103437
0.025922574
0.031172771
0.036809344
0.042767552
0.048963846
0.055297487
0.061652702
0.067901502
0.073907207
0.079528607
0.084624489
0.089058255
0.092702454
0.095443161
0.097184063
0.097849974
0.097389422
0.095776059
0.093008766
0.089110681
0.084127495
0.078125298
0.071188115
0.063415244
0.054918526
0.045819595
0.036247139
0.026334255
0.016215912
0.006026504
-0.004102616
-0.014045513
-0.023683753
-0.032908112
-0.041619958
-0.049732292
-0.057170468
-0.063872699
-0.069790398
-0.074888326
-0.079144504
-0.082549913
-0.085107984
-0.086833895
-0.087753695
-0.087903289
-0.087327278
-0.086077645
-0.084212268
-0.081793389
-0.078886177
-0.075557454
-0.071874587
-0.06790461
-0.063713574
-0.059366039
-0.054924639
-0.050449636
-0.045998324
-0.041624183
-0.037375785
-0.033295605
-0.029418776
-0.02577174
-0.022370616
-0.019219207
-0.016306829
-0.01360647
-0.01107382
-0.008647538
-0.006251034
-0.00379594
-0.00118703
0.001672075
0.004873127
0.008497768
0.012612598
0.017265
0.022480046
0.02825857
0.034576298
0.041383881
0.04860784
0.056152419
0.063902219
0.071725445
0.079477512
0.087004717
0.094147806
0.100745572
0.106638673
0.111673769
0.115707901
0.118612904
0.120279662
0.120621996
0.119579971
0.117122311
0.113247646
0.107984415
0.101389452
0.093545526
0.084558225
0.074552546
0.06366933
0.052061635
0.039891129
0.027324499
0.014529809
0.001672854
-0.011086258
-0.02359621
-0.035717195
-0.047323183
-0.058303591
-0.068564258
-0.07802781
-0.08663364
-0.09433763
-0.101111523
-0.10694192
-0.111828947
-0.115784766
-0.118832061
-0.121002595
-0.122335841
-0.122877678
-0.122679187
-0.121795525
-0.120284864
-0.118207367
-0.115624248
-0.112596918
-0.1091862
-0.105451655
-0.101450968
-0.097239401
-0.092869328
-0.088389871
-0.083846653
-0.079281638
-0.074732922
-0.070234346
-0.065814905
-0.061497945
-0.057300087
-0.053229903
-0.049286488
-0.045457983
-0.041720231
-0.038036059
-0.034355576
-0.030617662
-0.026752554
-0.022685429
-0.018340806
-0.013647425
-0.008543251
-0.002980184
0.003071997
0.00962278
0.016659255
0.024145686
0.032024211
0.040216494
0.048625963
0.057140306
0.065634032
0.073971066
0.082007504
0.089594708
0.096582985
0.102825908
0.10818502
0.112534436
0.115765033
0.117788194
0.118538992
0.117978586
0.116095625
0.112906604
0.108455096
0.102809857
0.096062073
0.088322091
0.079715787
0.070380662
0.06046181
0.050108007
0.039468095
0.028687733
0.017906534
0.007255583
-0.003144603
-0.013185575
-0.022771878
-0.031821349
-0.040264888
-0.048045944
-0.055119943
-0.061453787
-0.067025438
-0.071823551
-0.075847087
-0.079104831
-0.081614688
-0.083402712
-0.084501947
-0.084951145
-0.084793481
-0.084075286
-0.082844797
-0.081150893
-0.079041907
-0.076564668
-0.073763951
-0.070682323
-0.067360249
-0.06383637
-0.060147884
-0.056330928
-0.052420784
-0.048451854
-0.044457441
-0.040469324
-0.036517014
-0.032626556
-0.028818838
-0.025107498
-0.021496663
-0.017978803
-0.014533091
-0.011124835
-0.007706385
-0.004219488
-0.000598529
0.003225797
0.007322555
0.011756362
0.016583012
0.021845278
0.027569372
0.033762426
0.040411001
0.047480576
0.054915854
0.062641756
0.070564875
0.078575237
0.086548296
0.094347336
0.101826494
0.108834501
0.11521897
0.120831054
0.125530268
0.12918929
0.131698489
0.132969946
0.132940736
0.131575225
0.128866085
0.124833919
0.119525691
0.113012327
0.105385866
0.096756454
0.087249291
0.077001519
0.066158974
0.054872798
0.043296025
0.031580404
0.019873591
0.008316707
-0.0029578
-0.013828007
-0.024184051
-0.033929372
-0.042981659
-0.051273415
-0.05875205
-0.065379483
-0.071131445
-0.075996727
-0.079976435
-0.083083115
-0.085339625
-0.086777793
-0.08743694
-0.087362459
-0.086604557
-0.0852171
-0.083256493
-0.080780673
-0.077848354
-0.074518454
-0.070849634
-0.066899952
-0.062726696
-0.058386301
-0.053934186
-0.049424454
-0.044909461
-0.040439206
-0.036060444
-0.031815524
-0.027741126
-0.023867062
-0.020215089
-0.01679762
-0.013616196
-0.010659871
-0.007903906
-0.005309217
-0.002822874
-0.000379717
0.002094942
0.004681687
0.007462654
0.01051671
0.013914526
0.017713961
0.021956144
0.026662509
0.0318329
0.037444677
0.043452661
0.049789786
0.056368331
0.063081754
0.069807281
0.076409349
0.08274385
0.088662959
0.094020212
0.098675462
0.102499451
0.105377841
0.107214693
0.107935379
0.107488803
0.105848721
0.103014047
0.09900818
0.093877559
0.087689649
0.080530501
0.072501965
0.063718622
0.054304591
0.044390445
0.034110429
0.023599902
0.012992904
0.00241988
-0.007994419
-0.018132868
-0.027887634
-0.037161472
-0.045868671
-0.053935706
-0.061301604
-0.067918063
-0.073749342
-0.078771919
-0.082973952
-0.086354549
-0.088922919
-0.090697499
-0.091705022
-0.091979449
-0.091560857
-0.090494452
-0.088829765
-0.086619949
-0.083921145
-0.080791855
-0.077292215
-0.073483165
-0.069425596
-0.065179591
-0.060803741
-0.056354479
-0.051885414
-0.047446597
-0.043083667
-0.038836799
-0.034739405
-0.030816524
-0.027082846
-0.023540485
-0.020176894
-0.016963525
-0.013855672
-0.010793893
-0.00770703
-0.004516454
-0.001140948
0.002498151
0.00647185
0.010838783
0.01564123
0.020902171
0.026623438
0.032784898
0.039344541
0.046239382
0.053387056
0.060688012
0.068028083
0.075281275
0.082312735
0.088981935
0.095146136
0.100664161
0.105400385
0.109228809
0.112037137
0.113730686
0.114235867
0.11350286
0.11150721
0.108250238
0.103758405
0.098081846
0.091292299
0.083480563
0.074753733
0.065232313
0.055047141
0.044336151
0.033241137
0.021904701
0.010467449
-0.000934545
-0.012171913
-0.023123789
-0.03367932
-0.043738994
-0.053215871
-0.062036637
-0.070142302
-0.077488298
-0.084043965
-0.089791555
-0.09472499
-0.098848589
-0.102175875
-0.104728516
-0.106535472
-0.107632301
-0.108060495
-0.107866717
-0.107101837
-0.105819691
-0.104075599
-0.101924835
-0.099421244
-0.096616198
-0.093557931
-0.090291144
-0.086856778
-0.083291994
-0.079630423
-0.075902627
-0.072136508
-0.068357427
-0.064588021
-0.060847792
-0.057152513
-0.053513417
-0.049935958
-0.046418071
-0.042948165
-0.039503356
-0.036048447
-0.032536076
-0.028908338
-0.025099872
-0.021042125
-0.016668266
-0.011918279
-0.006743785
-0.001112178
0.004990344
0.011557049
0.018560076
0.025950743
0.033660597
0.041603105
0.049675787
0.05776261
0.065736536
0.073462299
0.080799629
0.087606887
0.093744904
0.099080914
0.103492606
0.106872113
0.109129748
0.110197263
0.110030319
0.108609936
0.105942818
0.10206065
0.097018548
0.090892882
0.083778665
0.075786607
0.067039852
0.057670536
0.047816376
0.037617511
0.027213623
0.016741305
0.006331712
-0.003891478
-0.013813789
-0.02333137
-0.032352198
-0.040797085
-0.048600434
-0.055710573
-0.062089607
-0.067712846
-0.072567925
-0.076653724
-0.07997927
-0.082562714
-0.084430329
-0.085615417
-0.086157045
-0.086098656
-0.085486658
-0.084369189
-0.082795074
-0.080812924
-0.078470314
-0.075813007
-0.072884246
-0.069724153
-0.066369255
-0.062852244
-0.059202076
-0.055444398
-0.051602182
-0.047696522
-0.043747469
-0.039774752
-0.035798218
-0.031837657
-0.027911783
-0.024036434
-0.020222274
-0.016472251
-0.012779163
-0.009123945
-0.005475329
-0.001790912
0.001980754
0.005897258
0.010018699
0.01440344
0.019103592
0.024160641
0.029601697
0.03543661
0.041656132
0.048231157
0.055112997
0.062234442
0.069511322
0.076844372
0.084121352
0.091219338
0.098007228
0.104348653
0.110105485
0.115142008
0.119329448
0.122550444
0.124703176
0.125705077
0.125496012
0.124040686
0.121330063
0.117381716
0.112239056
0.105969483
0.098661635
0.090422021
0.081371352
0.071640844
0.061368687
0.050696813
0.03976792
0.028722725
0.017697441
0.006821513
-0.003784405
-0.014010108
-0.023757093
-0.032939426
-0.041484289
-0.049332218
-0.056437041
-0.062765515
-0.068296689
-0.073021123
-0.076940053
-0.080064461
-0.082414013
-0.084015943
-0.084903983
-0.085117336
-0.084699711
-0.083698455
-0.082163739
-0.080147759
-0.077703858
-0.074885651
-0.071746241
-0.068337543
-0.064709754
-0.060911108
-0.056987904
-0.052984675
-0.048944278
-0.044907847
-0.040914587
-0.037001292
-0.033201513
-0.029544361
-0.026053048
-0.022743285
-0.019621576
-0.016683409
-0.013911569
-0.011275006
-0.008728698
-0.006214743
-0.003664728
-0.001003205
0.001847988
0.00496498
0.008417247
0.012263473
0.016547912
0.021297278
0.02651842
0.032196973
0.038296901
0.044760768
0.051510707
0.058450049
0.06546555
0.072430184
0.079206438
0.085650022
0.091613979
0.096953212
0.101529225
0.105214868
0.107898862
0.10948979
0.109919159
0.10914327
0.107143923
0.103928185
0.099527521
0.093996381
0.087410269
0.07986338
0.071465842
0.062340566
0.052619852
0.042441945
0.031947688
0.021277427
0.010568321
-4.79E-05
-0.010446825
-0.02051294
-0.030141104
-0.039237828
-0.047722347
-0.0555273
-0.062598977
-0.068897208
-0.074395026
-0.07907815
-0.082944317
-0.086002399
-0.088271231
-0.089778259
-0.090558142
-0.090651372
-0.09010289
-0.088960783
-0.087275263
-0.085097939
-0.082481269
-0.079478058
-0.076140987
-0.072522105
-0.068672219
-0.064640276
-0.060472924
-0.056214341
-0.051906203
-0.047587599
-0.043294737
-0.039060345
-0.034912766
-0.030874713
-0.026961613
-0.023179581
-0.01952334
-0.015974752
-0.012502593
-0.009063605
-0.005604353
-0.002063663
0.001624225
0.005525738
0.009703591
0.014212386
0.019094624
0.024377446
0.030070189
0.036162715
0.042624581
0.049405167
0.056434803
0.063626665
0.070879078
0.078077981
0.085099493
0.091812552
0.098081737
0.103770496
0.108744826
0.11287723
0.116050802
0.11816335
0.11913133
0.118893085
0.117411027
0.114672678
0.110690651
0.105501773
0.099165495
0.091761797
0.083388701
0.074159556
0.064200237
0.053646299
0.042639991
0.031327137
0.019853976
0.008364067
-0.003004601
-0.014122288
-0.024869939
-0.035141239
-0.044844163
-0.053901934
-0.062253379
-0.069852706
-0.076668855
-0.082684481
-0.087894671
-0.092305495
-0.095932583
-0.098799816
-0.10093813
-0.102384394
-0.103180327
-0.103371457
-0.103006054
-0.10213402
-0.10080583
-0.099071634
-0.096980572
-0.094580258
-0.091916387
-0.089032421
-0.085969325
-0.082765371
-0.079456017
-0.076073802
-0.072648181
-0.069205245
-0.065767338
-0.062352456
-0.058973159
-0.055634751
-0.052332977
-0.049051799
-0.045761881
-0.0424202
-0.038971036
-0.035348403
-0.031479849
-0.027291313
-0.022712602
-0.017682898
-0.012155678
-0.006102579
0.000484001
0.007589466
0.015176516
0.023185517
0.031535717
0.040127183
0.048843148
0.057552626
0.066113337
0.074375135
0.082183928
0.089385901
0.095831875
0.101381748
0.10590885
0.109304056
0.11147948
0.112371531
0.111943008
0.11018404
0.107111918
0.102769966
0.097225674
0.090568253
0.082905717
0.074361608
0.06507156
0.055179797
0.04483554
0.034189395
0.023389938
0.012580609
0.001897041
-0.008535086
-0.018601618
-0.028200934
-0.037244573
-0.045657745
-0.053379795
-0.06036453
-0.06658024
-0.072009274
-0.076647117
-0.080501082
-0.083588727
-0.085936123
-0.087576204
-0.088547315
-0.088892001
-0.088656001
-0.087887372
-0.08663569
-0.084951302
-0.082884609
-0.08048538
-0.077802069
-0.074881163
-0.071766523
-0.068498821
-0.065115101
-0.061648446
-0.058127823
-0.054578178
-0.051020863
-0.047474304
-0.043954625
-0.040475893
-0.037049883
-0.03368536
-0.030386831
-0.027152802
-0.02397395
-0.020831742
-0.017697657
-0.014532992
-0.011289416
-0.007910512
-0.004334341
-0.000496875
0.003663977
0.008204051
0.013168627
0.018588474
0.024476587
0.030825949
0.037608487
0.044775243
0.052257557
0.05996892
0.06780713
0.075656507
0.083390147
0.09087234
0.097961405
0.104513226
0.110385522
0.115442613
0.119560278
0.122630337
0.124564655
0.125298259
0.124791339
0.123030085
0.120026564
0.115817741
0.110463708
0.104045258
0.096661051
0.088424596
0.079461111
0.069904282
0.059892935
0.049567742
0.039068028
0.028528795
0.018078039
0.007834504
-0.002094032
-0.011611942
-0.020636374
-0.029097425
-0.036937912
-0.044112837
-0.050588752
-0.056343213
-0.061364291
-0.065650012
-0.069207614
-0.072052548
-0.074207319
-0.0757003
-0.076564603
-0.076837038
-0.076557159
-0.075766407
-0.074507381
-0.072823289
-0.07075753
-0.06835338
-0.065653801
-0.062701391
-0.059538451
-0.05620708
-0.052749161
-0.049206222
-0.045619191
-0.042027998
-0.038470927
-0.034983729
-0.03159856
-0.02834278
-0.025237608
-0.022296647
-0.019524277
-0.016913959
-0.014446667
-0.012089766
-0.009796812
-0.007508645
-0.005155834
-0.002662194
5.10E-05
0.003060618
0.006436467
0.010237068
0.014505465
0.019266132
0.024522814
0.030257443
0.036430081
0.042979707
0.049825657
0.056869594
0.063997778
0.071083529
0.077989977
0.084573435
0.090687563
0.096188055
0.100937439
0.104809681
0.107694513
0.109501299
0.110162194
0.109634342
0.107901016
0.104971664
0.100880853
0.095686248
0.08946592
0.082315242
0.074343573
0.065670899
0.056424574
0.04673625
0.03673907
0.026565225
0.016343859
0.006199099
-0.003751928
-0.013400956
-0.022650212
-0.031413713
-0.039618147
-0.047203262
-0.054121768
-0.060338808
-0.065831029
-0.07058542
-0.074598198
-0.077873949
-0.080425007
-0.082271012
-0.08343862
-0.083961181
-0.083878198
-0.083234488
-0.082079027
-0.080463518
-0.078440911
-0.076064105
-0.073384985
-0.070453816
-0.067318994
-0.064027055
-0.060622768
-0.057149171
-0.053647484
-0.050156889
-0.046714051
-0.043352296
-0.040100426
-0.036981246
-0.034010016
-0.031192984
-0.028525906
-0.025992544
-0.023563468
-0.021195676
-0.018833409
-0.016410465
-0.013854027
-0.011089492
-0.008045481
-0.004658484
-0.000876817
0.003336193
0.00799988
0.013114783
0.018662058
0.024603623
0.030882813
0.03742538
0.044140757
0.050923729
0.057656771
0.064213188
0.070460975
0.076267155
0.081502259
0.086044623
0.089784353
0.092626902
0.094496141
0.095336715
0.095115554
0.093822506
0.09147006
0.088092155
0.083742275
0.078491042
0.072423463
0.065635965
0.058233401
0.050326112
0.042027211
0.033450295
0.024707679
0.015908916
0.007159343
-0.001441428
-0.009801027
-0.017835751
-0.025471759
-0.032645924
-0.039306256
-0.045411883
-0.050932742
-0.055849018
-0.060150334
-0.063834745
-0.066907718
-0.069381194
-0.071272782
-0.072605036
-0.073404797
-0.0737026
-0.073532153
-0.072929779
-0.07193376
-0.070583567
-0.068919082
-0.066979918
-0.064804929
-0.062431901
-0.059897392
-0.057236714
-0.054483981
-0.051672077
-0.048832511
-0.045995181
-0.043187934
-0.040435731
-0.037759299
-0.035173358
-0.032684566
-0.030289362
-0.02797201
-0.025703297
-0.023440489
-0.021128819
-0.01870429
-0.016097302
-0.013236676
-0.01005392
-0.006487497
-0.002486827
0.001984239
0.006944695
0.012394587
0.018314119
0.024663493
0.031383415
0.038396268
0.045607918
0.052910001
0.060182526
0.067296633
0.074117434
0.080507151
0.086328688
0.091449473
0.095745351
0.099104395
0.101430564
0.102647049
0.102699067
0.101555836
0.099211612
0.095685719
0.0910216
0.085285142
0.078562491
0.070957441
0.062588318
0.053584463
0.044082494
0.034222537
0.024144638
0.0139856
0.003876307
-0.006060533
-0.015712256
-0.024977752
-0.033768672
-0.042010269
-0.04964184
-0.056616811
-0.062902475
-0.068479427
-0.073340693
-0.07749053
-0.080942999
-0.083720465
-0.085852128
-0.087372566
-0.088320372
-0.08873691
-0.088665199
-0.088148914
-0.087231608
-0.085956127
-0.084364124
-0.082495584
-0.080388367
-0.078077808
-0.075596363
-0.072973427
-0.070235387
-0.067405924
-0.064506451
-0.06155662
-0.058574667
-0.055577419
-0.052579883
-0.049594501
-0.046630184
-0.043690977
-0.04077425
-0.037868657
-0.034952382
-0.031992299
-0.028944406
-0.025755546
-0.02236625
-0.018714446
-0.014739783
-0.010388194
-0.005616284
-0.000395114
0.005287015
0.011423018
0.01798668
0.024933262
0.032200782
0.039711718
0.047375005
0.055088197
0.062739692
0.070210981
0.077379014
0.084118913
0.090307054
0.095824329
0.10055935
0.104411523
0.107293841
0.109135311
0.109882934
0.109503269
0.107983528
0.10533211
0.101578414
0.096771919
0.090980641
0.084289064
0.076795768
0.068610915
0.059853619
0.050649265
0.041126835
0.031416295
0.021646016
0.011940197
0.002416376
-0.006816721
-0.015660854
-0.024029564
-0.03184925
-0.039059895
-0.045615202
-0.051482158
-0.056640299
-0.061080838
-0.06480564
-0.06782596
-0.07016098
-0.071836326
-0.072882751
-0.073335069
-0.073231284
-0.072611879
-0.071519255
-0.069997304
-0.068091052
-0.065846277
-0.063308986
-0.060524755
-0.057538039
-0.05439153
-0.051125644
-0.04777818
-0.044384141
-0.040975694
-0.037582173
-0.03422991
-0.030941747
-0.02773625
-0.024626675
-0.021619659
-0.018713696
-0.015897665
-0.013149875
-0.01043808
-0.00772042
-0.004946905
-0.002061328
0.000996226
0.004286112
0.007865235
0.011782918
0.016077042
0.020770806
0.025870343
0.031363302
0.037218434
0.043385978
0.04979852
0.056372152
0.06300782
0.069592983
0.076004048
0.082109857
0.087775924
0.092868997
0.097261663
0.100836759
0.103491458
0.105140916
0.105721271
0.105191768
0.103535903
0.100761567
0.096900309
0.092005806
0.086151651
0.079428614
0.07194163
0.063806706
0.05514783
0.046093873
0.036775577
0.027322744
0.017861716
0.008513128
-0.000610116
-0.009404686
-0.017778442
-0.025651711
-0.032958139
-0.039645086
-0.045673596
-0.051017908
-0.055664599
-0.059611574
-0.06286712
-0.065448959
-0.06738311
-0.068702461
-0.069445145
-0.069652855
-0.06936928
-0.068638873
-0.067506038
-0.066014619
-0.064207548
-0.062126537
-0.059811806
-0.057301856
-0.054633345
-0.051841116
-0.048958326
-0.046016579
-0.043046035
-0.040075482
-0.0371323
-0.034242158
-0.031428388
-0.028711048
-0.026105759
-0.023622285
-0.021262772
-0.019019753
-0.016874328
-0.014795009
-0.012737633
-0.010646513
-0.008456841
-0.006098141
-0.003498382
-0.000588424
0.002693504
0.006397601
0.010558942
0.015194839
0.020303066
0.025860836
0.031824481
0.038129894
0.044693696
0.051414991
0.058177623
0.064853001
0.071303645
0.077387404
0.082962037
0.087889864
0.09204225
0.095303712
0.097575474
0.098778456
0.098855623
0.097773557
0.095523193
0.092119706
0.087601616
0.082029279
0.075482846
0.068059681
0.059871307
0.051040118
0.041696058
0.031973409
0.022007801
0.011933563
0.001881415
-0.008023585
-0.017663899
-0.026931082
-0.03572709
-0.043965385
-0.051571836
-0.058485388
-0.064658382
-0.070056478
-0.074658221
-0.078454407
-0.081447316
-0.083649803
-0.085084292
-0.085781676
-0.085780117
-0.085123794
-0.083861719
-0.08204668
-0.07973428
-0.076982086
-0.073848785
-0.070393347
-0.066674248
-0.062748789
-0.058672501
-0.054498546
-0.050277119
-0.046054909
-0.041874681
-0.037774963
-0.033789809
-0.029948604
-0.026275731
-0.022789881
-0.019502802
-0.016417538
-0.013526431
-0.010809396
-0.008233041
-0.005751049
-0.003305776
-0.000830771
0.001745967
0.004498062
0.00749642
0.010804806
0.014475698
0.018546743
0.023038017
0.027950249
0.033264001
0.038939741
0.044918726
0.05112469
0.057466188
0.063839305
0.070130442
0.076219031
0.081980117
0.087286996
0.092014127
0.096040422
0.099252815
0.101549946
0.102845708
0.10307247
0.102183739
0.100156069
0.096990043
0.09271031
0.087364697
0.081022459
0.073771819
0.065717047
0.056975269
0.047673105
0.037943281
0.027921348
0.017742551
0.007538921
-0.002563354
-0.012446316
-0.022002287
-0.031135412
-0.039762655
-0.047814477
-0.055235277
-0.061983511
-0.068031395
-0.073364233
-0.077979455
-0.081885477
-0.085100393
-0.087650514
-0.089568797
-0.090893262
-0.091665476
-0.091929175
-0.091729098
-0.091110066
-0.090116291
-0.088790817
-0.087175022
-0.085308193
-0.083227146
-0.080965869
-0.078555249
-0.076022979
-0.073393662
-0.070689066
-0.067928397
-0.065128444
-0.062303498
-0.059465129
-0.056621823
-0.053778211
-0.050933875
-0.048082103
-0.045208655
-0.042290269
-0.039293349
-0.036173815
-0.032878581
-0.029348464
-0.025522269
-0.021341647
-0.016756047
-0.011727082
-0.006231935
-0.000265678
0.00615751
0.013004136
0.020222029
0.027741589
0.035477463
0.043330546
0.051190191
0.058936655
0.066443849
0.073582352
0.080222435
0.086237093
0.091505373
0.095916048
0.099371399
0.101790743
0.103113264
0.103299952
0.102334663
0.100224343
0.096998429
0.092707529
0.087421483
0.081226935
0.074224624
0.066526547
0.058253108
0.049530273
0.040486814
0.031251679
0.021951466
0.012708044
0.003636353
-0.005157568
-0.013578266
-0.021542243
-0.028979015
-0.03583179
-0.042057669
-0.047627316
-0.052524191
-0.056743534
-0.060291157
-0.063182083
-0.065439161
-0.067091741
-0.068174428
-0.068725946
-0.068788128
-0.068405086
-0.067622515
-0.066487112
-0.065046017
-0.063346237
-0.061433992
-0.059353998
-0.057148696
-0.054857449
-0.052515774
-0.050154664
-0.047800083
-0.045472647
-0.043187568
-0.040954849
-0.038779681
-0.03666299
-0.034602153
-0.032591854
-0.030625016
-0.02869369
-0.026789801
-0.024905722
-0.02303465
-0.021170722
-0.01930886
-0.017444492
-0.015573344
-0.013691486
-0.011795629
-0.009883503
-0.007954211
-0.006008509
-0.004048861
-0.002079199
-0.000104506
0.001869613
0.003837371
0.005793202
0.007732026
0.00964931
0.011540981
0.013403281
0.01523258
0.017025222
0.018777455
0.020485446
0.022145326
0.023753239
0.025305433
0.026798471
0.028229614
0.029597227
0.030900996
0.032141928
0.033322198
0.034444878
0.035513603
0.03653226
0.037504753
0.038434796
0.039325691
0.040180069
0.04099965
0.041785103
0.042536084
0.043251499
0.043929902
0.044569767
0.045169503
0.045727308
0.046241007
0.046707942
0.047124901
0.04748814
0.047793514
0.04803663
0.048212914
0.04831763
0.048345941
0.048293097
0.048154691
0.047926957
0.04760708
0.047193419
0.046685568
0.046084321
0.045391596
0.04461035
0.04374448
0.042798716
0.041778512
0.040689923
0.039539487
0.038334116
0.037081094
0.035788347
0.0344652
0.033123767
0.031781058
0.030461565
0.029199833
0.028042405
0.027048539
0.026289308
0.025845007
0.025801077
0.026242907
0.027250021
0.028890375
0.031215425
0.034256219
0.038020624
0.042491743
0.047627503
0.053361211
0.059602824
0.066240756
0.073144157
0.080165733
0.087145203
0.093913289
0.100296022
0.106119244
0.111213224
0.115417225
0.118583871
0.120583151
0.121306001
0.120667414
0.118608918
0.115100196
0.110139693
0.103754189
0.09599748
0.086948349
0.076707973
0.065396861
0.053151479
0.040120882
0.026463458
0.012343675
-0.002071186
-0.016614184
-0.03112165
-0.045435906
-0.059407822
-0.072899253
-0.08578527
-0.097955978
-0.109317749
-0.119793784
-0.129324118
-0.137865306
-0.14538999
-0.151886422
-0.157357905
-0.161822034
-0.165309609
-0.167863181
-0.169535215
-0.170385941
-0.170481049
-0.169889461
-0.168681345
-0.166926487
-0.164693045
-0.162046632
-0.159049597
-0.155760421
-0.152233149
-0.148516968
-0.14465595
-0.140688957
-0.136649627
-0.13256648
-0.128463128
-0.124358578
-0.120267457
-0.116200079
-0.112162459
-0.108156356
-0.104179261
-0.10022425
-0.096279558
-0.09232776
-0.088344706
-0.084298629
-0.08014983
-0.075851166
-0.071349365
-0.066587153
-0.061506164
-0.0560505
-0.050170682
-0.04382768
-0.036996566
-0.02966932
-0.021856538
-0.013588131
-0.004913225
0.004100665
0.013369202
0.022793321
0.032261565
0.041652486
0.050837045
0.059681153
0.068048615
0.075804522
0.08281887
0.088970225
0.094149358
0.098262755
0.101235816
0.103015516
0.103572303
0.102901098
0.101021347
0.097976099
0.093830238
0.088667993
0.082589788
0.075708795
0.06814763
0.060035315
0.05150441
0.04268835
0.033718958
0.02472414
0.015825779
0.007137926
-0.001234683
-0.009197817
-0.016668671
-0.023576454
-0.029862666
-0.035481241
-0.040398623
-0.044593683
-0.048057418
-0.05079242
-0.052812131
-0.054139895
-0.054807853
-0.054855774
-0.054329852
-0.053281485
-0.0517661
-0.049841964
-0.047568902
-0.04500692
-0.042214832
-0.039249025
-0.03616243
-0.033003739
-0.029816886
-0.026640767
-0.023509089
-0.020450245
-0.017487206
-0.014637462
-0.011913064
-0.00932066
-0.006861396
-0.004530514
-0.00231671
-0.000201371
0.001842038
0.003848045
0.005858408
0.00792066
0.010086353
0.012409076
0.014942019
0.017735058
0.020831636
0.024265768
0.028059502
0.032220956
0.036743013
0.041602708
0.046761421
0.052165885
0.057749852
0.06343617
0.069139019
0.07476613
0.080220861
0.085404181
0.090216723
0.094561054
0.09834417
0.101480171
0.103893052
0.105519381
0.106310515
0.106234198
0.105275548
0.103437452
0.100740369
0.097221496
0.092933386
0.08794215
0.082325389
0.076169888
0.06956911
0.062620599
0.055423499
0.048076252
0.040674524
0.033309421
0.026066056
0.019022409
0.012248402
0.005805192
-0.000255383
-0.005891136
-0.011069608
-0.015767849
-0.019971974
-0.023676545
-0.026883797
-0.029602789
-0.031848615
-0.033641697
-0.035007155
-0.035974155
-0.036575167
-0.036845063
-0.036820099
-0.036536781
-0.036030784
-0.035336078
-0.034484336
-0.033504518
-0.032422623
-0.031261697
-0.030042058
-0.028781575
-0.027495932
-0.026198864
-0.024902301
-0.023616344
-0.022349065
-0.021106224
-0.019890887
-0.018702872
-0.017537992
-0.016387134
-0.015235274
-0.014060723
-0.012834889
-0.011522736
-0.010084016
-0.008475202
-0.006651945
-0.004571823
-0.002197191
0.000502142
0.003546655
0.00694544
0.010695099
0.014779147
0.019167906
0.023818874
0.028677458
0.033677932
0.038744546
0.043792839
0.048731378
0.053464008
0.057892486
0.06191934
0.065450816
0.068399822
0.070688786
0.072252281
0.073039234
0.073014507
0.072159816
0.070474054
0.067973053
0.064688779
0.060668027
0.055970769
0.050668214
0.044840609
0.038574873
0.031962193
0.025095668
0.018068081
0.010969889
0.003887509
-0.003098029
-0.009912022
-0.01648671
-0.02276172
-0.028684408
-0.034210125
-0.039302462
-0.043933409
-0.048083314
-0.051740579
-0.054901144
-0.057567848
-0.059749685
-0.061460982
-0.062720556
-0.063550909
-0.063977434
-0.064027685
-0.063730746
-0.063116721
-0.062216278
-0.061060251
-0.059679347
-0.058103981
-0.056364112
-0.054488923
-0.052506365
-0.050442671
-0.048321998
-0.046166247
-0.043995017
-0.041825609
-0.039673053
-0.037550072
-0.035466887
-0.033430782
-0.031445433
-0.029510054
-0.027618541
-0.025758697
-0.023911655
-0.022051689
-0.020146583
-0.018158638
-0.01604634
-0.013766709
-0.01127813
-0.008543411
-0.00553277
-0.002226459
0.001383247
0.005290811
0.009476962
0.013908919
0.018541147
0.02331644
0.02816727
0.033017386
0.037783649
0.04237805
0.046709895
0.050688279
0.054224853
0.0572367
0.059649043
0.061397648
0.062430935
0.062711757
0.062218648
0.060946323
0.058905449
0.056121812
0.052635022
0.048496863
0.043769414
0.038523168
0.032835185
0.026787206
0.020463675
0.013949858
0.007330173
0.000686728
-0.005901952
-0.012362051
-0.018625539
-0.02463118
-0.030325316
-0.035662342
-0.040604927
-0.045124042
-0.049198818
-0.052816149
-0.055970074
-0.058661109
-0.060895618
-0.062685111
-0.064045448
-0.064995999
-0.065558752
-0.065757468
-0.065616971
-0.065162586
-0.064419642
-0.063413096
-0.062167336
-0.060706235
-0.059053426
-0.057232578
-0.055267582
-0.053182652
-0.051002368
-0.048751537
-0.046454718
-0.044135404
-0.041815025
-0.039511858
-0.03723984
-0.035007279
-0.032815344
-0.030656317
-0.028511851
-0.026351744
-0.02413372
-0.021804367
-0.019301167
-0.016555632
-0.013497481
-0.010059389
-0.006181693
-0.001816622
0.003068193
0.008487039
0.01443435
0.020883832
0.027788507
0.03508156
0.04267774
0.050475175
0.058357654
0.066197336
0.073857752
0.081197093
0.088071804
0.094340439
0.099867689
0.104528369
0.108211188
0.11082219
0.112287802
0.112557266
0.111604217
0.109427233
0.106049431
0.101517338
0.095899192
0.089282628
0.081771786
0.073484045
0.064546591
0.055093023
0.045260206
0.035185439
0.025003925
0.014846511
0.004837651
-0.004906476
-0.01427968
-0.023187233
-0.03154702
-0.039290423
-0.046362952
-0.052724556
-0.058349547
-0.063226204
-0.067356055
-0.070752752
-0.073440582
-0.075452722
-0.076829419
-0.077616243
-0.077862456
-0.077619505
-0.076939766
-0.075875476
-0.074477749
-0.072795637
-0.070875301
-0.068759402
-0.066486775
-0.064092359
-0.061607319
-0.059059265
-0.056472519
-0.053868304
-0.051264711
-0.048676488
-0.046114776
-0.043586655
-0.041094298
-0.038633689
-0.036193201
-0.033752508
-0.031281949
-0.028742303
-0.026085156
-0.023254131
-0.020187094
-0.016819342
-0.013087638
-0.00893465
-0.004313333
0.000809146
0.006448304
0.012600196
0.019240286
0.026323216
0.03378344
0.041536737
0.049482528
0.057506685
0.065484545
0.073283872
0.080767645
0.087796742
0.094232842
0.099941741
0.104797061
0.108684072
0.111503334
0.113173967
0.113636408
0.112854549
0.110817101
0.107538018
0.10305595
0.09743291
0.090752347
0.083116623
0.074643985
0.065465196
0.055719967
0.045553277
0.035111748
0.024540188
0.013978397
0.003558366
-0.006598014
-0.016380692
-0.025692692
-0.034450883
-0.04258626
-0.050043784
-0.056781993
-0.062772559
-0.067999812
-0.07246014
-0.076161235
-0.079121174
-0.08136738
-0.082935442
-0.083867768
-0.08421205
-0.084019687
-0.08334421
-0.082239807
-0.080760038
-0.07895684
-0.076879776
-0.074575488
-0.072087272
-0.069454859
-0.066714462
-0.063899014
-0.061038464
-0.058159995
-0.055288064
-0.052444191
-0.049646525
-0.046909274
-0.044242077
-0.041649217
-0.039128535
-0.036669974
-0.034253947
-0.031849991
-0.029416178
-0.026899608
-0.024238177
-0.021363601
-0.018205249
-0.014694341
-0.010768256
-0.006374729
-0.001475607
0.003950134
0.009904328
0.016368548
0.023303992
0.030652176
0.038336277
0.046262956
0.05432452
0.062401224
0.070363635
0.078075108
0.085394504
0.092179357
0.098289613
0.103591859
0.10796375
0.11129833
0.113507918
0.114527163
0.114315111
0.112856323
0.110161064
0.106264587
0.101225634
0.095124297
0.088059298
0.08014478
0.071506856
0.062280106
0.052604124
0.042620192
0.032468167
0.022283618
0.012195274
0.002322881
-0.007224527
-0.016349946
-0.024969274
-0.033011752
-0.040420066
-0.047150173
-0.053170869
-0.058463143
-0.063019368
-0.06684227
-0.069943566
-0.07234224
-0.074062803
-0.075133961
-0.075587788
-0.075459267
-0.074786
-0.073607903
-0.071966837
-0.069906214
-0.067470556
-0.064704979
-0.061654681
-0.058364558
-0.05487899
-0.051241772
-0.047496105
-0.043684557
-0.039848915
-0.036029853
-0.03226639
-0.028595088
-0.025048928
-0.021655958
-0.018437842
-0.015408292
-0.012571349
-0.009919647
-0.007433008
-0.005077786
-0.002807274
-0.000563276
0.001721166
0.004118081
0.006700288
0.009536893
0.012688927
0.016205464
0.020120539
0.024450969
0.029195012
0.034331849
0.039821808
0.0456072
0.051613621
0.057751633
0.06391866
0.070001148
0.075877176
0.081419708
0.086500477
0.090994193
0.094782779
0.097759428
0.099832273
0.100927436
0.100991261
0.099991748
0.09791914
0.094785681
0.090624698
0.085489244
0.079450353
0.072594809
0.065022474
0.056843353
0.048174569
0.039137421
0.029854754
0.02044864
0.01103822
0.001737662
-0.007345723
-0.016113222
-0.024476291
-0.032357849
-0.039693251
-0.046430882
-0.052532263
-0.057971611
-0.06273495
-0.066818993
-0.070229967
-0.0729825
-0.075098516
-0.076606088
-0.077538317
-0.077932348
-0.07782858
-0.077269944
-0.076301044
-0.074967145
-0.073313206
-0.071383076
-0.069218829
-0.066860262
-0.064344672
-0.061706885
-0.058979379
-0.056192409
-0.053374094
-0.050550427
-0.047745091
-0.044979025
-0.042269792
-0.039630803
-0.037070375
-0.0345905
-0.032185352
-0.029839816
-0.02752858
-0.025216256
-0.022858471
-0.020403576
-0.017794873
-0.014973473
-0.011881722
-0.008466911
-0.004684883
-0.000503126
0.00409672
0.009116948
0.014542524
0.020340686
0.026461326
0.032837863
0.039388414
0.046017238
0.052616481
0.059068322
0.065247643
0.071025273
0.076271834
0.080862005
0.084678943
0.087618603
0.089593675
0.090536782
0.090402608
0.089168937
0.086836762
0.083429662
0.078992592
0.073590266
0.067305292
0.060235933
0.052493429
0.044198965
0.03548042
0.026468997
0.01729588
0.008089119
-0.001029107
-0.00994471
-0.018553432
-0.026762106
-0.034489494
-0.041666715
-0.048237371
-0.054157456
-0.059394999
-0.063929478
-0.067751094
-0.070860007
-0.073265593
-0.074985739
-0.076046085
-0.076479148
-0.076323291
-0.075621623
-0.074420869
-0.072770255
-0.070720481
-0.068322784
-0.065628153
-0.062686656
-0.059546862
-0.056255371
-0.052856426
-0.049391616
-0.045899694
-0.04241649
-0.038974822
-0.035604294
-0.032330875
-0.029176306
-0.026157404
-0.023285191
-0.020563676
-0.017988323
-0.01554439
-0.013205575
-0.010933408
-0.008677714
-0.006378178
-0.003966938
-0.001372143
0.001477718
0.004649117
0.008198944
0.012170607
0.016590998
0.021468357
0.026791018
0.03252702
0.038624642
0.045013856
0.051608518
0.058309005
0.065004999
0.071578314
0.077905744
0.083861926
0.089322213
0.094165611
0.098277751
0.101553898
0.103901967
0.105245473
0.105526229
0.10470657
0.102770881
0.099726301
0.095602565
0.090450914
0.084342084
0.077363561
0.069616473
0.061212427
0.052270432
0.042914067
0.033268978
0.023460618
0.013612122
0.003842316
-0.005736148
-0.015018529
-0.02390959
-0.032325007
-0.040192633
-0.047453498
-0.054062398
-0.059987915
-0.065211924
-0.069728685
-0.073543622
-0.076671907
-0.079136959
-0.080968903
-0.082203072
-0.082878706
-0.083037883
-0.082724625
-0.081984146
-0.080862155
-0.079404097
-0.077654202
-0.07565435
-0.073442965
-0.071054257
-0.068518017
-0.065859824
-0.063101533
-0.060261974
-0.057357809
-0.054404338
-0.051416111
-0.048407196
-0.045390988
-0.042379436
-0.039381682
-0.036402352
-0.033439979
-0.030485881
-0.02752355
-0.024528504
-0.021468658
-0.018305375
-0.014995222
-0.011492375
-0.007751548
-0.003731304
0.000602557
0.005273937
0.01029397
0.01565919
0.021350382
0.027332236
0.033553821
0.03994971
0.046441478
0.052939422
0.059344447
0.065550141
0.071445118
0.076915785
0.081849623
0.086138849
0.089684119
0.092397964
0.094207896
0.095059042
0.09491607
0.093764197
0.091609305
0.088477252
0.084412539
0.079476447
0.073744796
0.067305505
0.060256169
0.052701743
0.04475224
0.036520381
0.028119223
0.019659845
0.011249217
0.002988272
-0.005029804
-0.012721044
-0.020011835
-0.026839707
-0.033153756
-0.03891467
-0.044094438
-0.048675763
-0.052651275
-0.056022578
-0.058799247
-0.060997797
-0.062640589
-0.063754696
-0.064370835
-0.06452241
-0.06424466
-0.06357394
-0.062547151
-0.061201274
-0.05957306
-0.057698832
-0.05561423
-0.053353835
-0.050950754
-0.048436267
-0.045839583
-0.043187753
-0.040505722
-0.037816398
-0.035140642
-0.032497163
-0.029902279
-0.02736945
-0.024908532
-0.022524711
-0.020217124
-0.017977335
-0.015787959
-0.013621856
-0.011442199
-0.009203642
-0.006854554
-0.004340009
-0.001605085
0.001401808
0.004725685
0.008401958
0.012453804
0.016890047
0.021703694
0.026871263
0.032352967
0.038093643
0.044024188
0.050063318
0.056119566
0.062093464
0.067879765
0.073369688
0.078453315
0.083022289
0.086972809
0.090208731
0.092644581
0.094208407
0.094844366
0.094514769
0.09320135
0.090905708
0.087649087
0.083471544
0.078430488
0.072598688
0.066061922
0.058916401
0.051266052
0.043219798
0.034889015
0.026385271
0.017818335
0.009294306
0.000913813
-0.007229704
-0.015051577
-0.022477224
-0.029442981
-0.035896377
-0.04179593
-0.047110658
-0.051819486
-0.055910599
-0.059380734
-0.062234442
-0.064483392
-0.066145733
-0.067245431
-0.067811519
-0.067877242
-0.067479105
-0.066655939
-0.065448084
-0.063896735
-0.062043388
-0.059929293
-0.05759489
-0.055079333
-0.052420119
-0.049652782
-0.046810664
-0.043924819
-0.041024065
-0.038135042
-0.035282154
-0.032487309
-0.029769497
-0.027144299
-0.024623285
-0.022213196
-0.019914824
-0.01772167
-0.015618645
-0.01358115
-0.011574827
-0.009556218
-0.007474376
-0.00527335
-0.002895414
-0.00028476
0.002608686
0.005825659
0.009394435
0.013328436
0.017624724
0.022263469
0.02720827
0.032407145
0.037793926
0.043289844
0.048805262
0.054241596
0.059493528
0.06445156
0.069004948
0.073044937
0.076468177
0.079180156
0.081098444
0.08215562
0.082301667
0.081505619
0.07975639
0.077062845
0.073453147
0.068973481
0.063686292
0.05766819
0.051007577
0.043802046
0.036155648
0.028176148
0.019972384
0.011651868
0.0033187
-0.004928081
-0.012995666
-0.020798217
-0.028257348
-0.035302534
-0.041871513
-0.047910708
-0.053375567
-0.058230722
-0.062449973
-0.06601619
-0.068921169
-0.071165374
-0.072757547
-0.073714215
-0.074059078
-0.073822309
-0.073039797
-0.071752362
-0.070004946
-0.067845725
-0.06532515
-0.062494986
-0.059407348
-0.056113779
-0.052664477
-0.049107693
-0.045489292
-0.041852343
-0.038236758
-0.034679029
-0.031212007
-0.027864527
-0.024660812
-0.02161973
-0.018753853
-0.016068255
-0.013559073
-0.011212102
-0.009001812
-0.006891264
-0.004833144
-0.002771714
-0.000645272
0.001610967
0.004061543
0.006767107
0.009780766
0.013144703
0.016887361
0.02102138
0.025542337
0.030428219
0.035639539
0.041120127
0.046798529
0.052589798
0.058397468
0.06411564
0.069631258
0.07482675
0.079583088
0.083783236
0.087315879
0.090079222
0.091984596
0.092959539
0.092950187
0.091922932
0.089865327
0.086786221
0.082715171
0.077701271
0.071811473
0.06512849
0.057748416
0.049778184
0.041332882
0.032533028
0.023501908
0.014363051
0.005237772
-0.003757332
-0.01251289
-0.02092907
-0.028917419
-0.036402194
-0.043321197
-0.049626134
-0.055282521
-0.060269176
-0.06457738
-0.068209794
-0.071179171
-0.07350695
-0.075221783
-0.076358119
-0.076954904
-0.077054391
-0.07670104
-0.075940535
-0.074818895
-0.073381597
-0.07167272
-0.069734165
-0.067605053
-0.065321323
-0.062915508
-0.060416668
-0.057850456
-0.055239277
-0.052602592
-0.049957314
-0.047318168
-0.044697868
-0.042107078
-0.039554234
-0.037045352
-0.034583672
-0.032168924
-0.029796088
-0.027453861
-0.02512319
-0.022776296
-0.020376491
-0.017878913
-0.015232196
-0.012381111
-0.009270097
-0.005847343
-0.002068883
0.002097832
0.006671153
0.011653345
0.017029648
0.022768228
0.028820845
0.035123957
0.041600116
0.048159638
0.05470257
0.061120882
0.067300878
0.07312582
0.078478823
0.083246084
0.08732034
0.090604307
0.093013893
0.094481121
0.094956581
0.094411127
0.092836581
0.090245481
0.086670097
0.08216096
0.076785182
0.070624656
0.063774076
0.056338658
0.048431525
0.040170903
0.031677266
0.023070475
0.014467036
0.005977593
-0.002295251
-0.01025879
-0.017831688
-0.024945041
-0.031543032
-0.03758314
-0.043035743
-0.047883168
-0.052118431
-0.055743861
-0.058769721
-0.061212913
-0.063095837
-0.064445408
-0.065292166
-0.065669448
-0.065612571
-0.065158006
-0.064342652
-0.063203309
-0.06177636
-0.060097552
-0.058201782
-0.056122857
-0.053893149
-0.051543181
-0.049101223
-0.046593023
-0.044041689
-0.041467745
-0.038889268
-0.036322034
-0.033779573
-0.031273029
-0.028810773
-0.026397739
-0.024034564
-0.021716627
-0.019433018
-0.017165508
-0.014887817
-0.012565579
-0.010157195
-0.007615554
-0.004890393
-0.001931139
0.001309906
0.004874203
0.00879368
0.013087865
0.017761704
0.022804196
0.028187868
0.033869055
0.039788808
0.045874241
0.052040174
0.058190942
0.064222319
0.070023673
0.075480581
0.080477949
0.084903571
0.08865184
0.091627319
0.093747931
0.094947738
0.095179235
0.09441488
0.092647691
0.089891003
0.086177508
0.081557728
0.076098077
0.06987875
0.062991478
0.055537196
0.047623641
0.039362874
0.030868808
0.022254801
0.013631371
0.005104043
-0.003228578
-0.011276421
-0.018959238
-0.026207531
-0.032963073
-0.039179044
-0.044819931
-0.049861189
-0.054288554
-0.058097019
-0.061289675
-0.063876606
-0.065873863
-0.067302587
-0.068188401
-0.068560984
-0.068453699
-0.067903161
-0.066948678
-0.065631432
-0.0639934
-0.062076185
-0.059919953
-0.057562592
-0.055039233
-0.052382189
-0.049621226
-0.046783973
-0.043896324
-0.040982733
-0.038066406
-0.035169386
-0.03231243
-0.029514602
-0.0267926
-0.02415989
-0.021625634
-0.019193454
-0.016860115
-0.014614234
-0.012435381
-0.01029402
-0.008152284
-0.005965305
-0.003683008
-0.001252471
0.001379156
0.004261376
0.00743702
0.010939173
0.014788707
0.01899255
0.023542691
0.028415864
0.033573841
0.038964246
0.04452174
0.050169431
0.055820311
0.061378745
0.066742155
0.071803073
0.076451686
0.080578917
0.084079902
0.086857714
0.088827048
0.089917584
0.09007678
0.089271882
0.087491035
0.084743571
0.081059556
0.076488663
0.07109836
0.064971426
0.058202936
0.050897097
0.043164206
0.035117701
0.026871344
0.018536677
0.010220862
0.002024833
-0.005958236
-0.013644186
-0.02095885
-0.027838666
-0.03423094
-0.040093945
-0.045396923
-0.050119849
-0.054252928
-0.057795913
-0.060757238
-0.063152913
-0.065005182
-0.066341107
-0.067191303
-0.067588922
-0.067568863
-0.067167197
-0.066420747
-0.065366716
-0.064042335
-0.062484541
-0.060729569
-0.058812324
-0.056765593
-0.054619288
-0.052399875
-0.050130176
-0.047829562
-0.045514475
-0.043199053
-0.040895683
-0.038615294
-0.036367324
-0.034159354
-0.031996462
-0.029880306
-0.027807872
-0.025769997
-0.023749995
-0.021722794
-0.019654865
-0.017505068
-0.015226451
-0.012768878
-0.010082144
-0.007119198
-0.003839299
-0.000210964
0.003785485
0.008156024
0.012891739
0.017968325
0.023346206
0.028971132
0.034775163
0.040678012
0.046588756
0.052407791
0.05802903
0.063342522
0.068237537
0.072605967
0.076345783
0.07936439
0.081581789
0.082933379
0.083372297
0.08287106
0.0814223
0.079038566
0.075751361
0.071609542
0.066677179
0.061031082
0.054758311
0.047953756
0.040717783
0.033153909
0.025366608
0.017459364
0.009532933
0.001683717
-0.00599775
-0.013428122
-0.020532343
-0.027244494
-0.033508335
-0.039277507
-0.044515495
-0.049195469
-0.05329999
-0.056820491
-0.05975645
-0.062114322
-0.063906467
-0.065150279
-0.065867517
-0.06608376
-0.065827956
-0.065132071
-0.064030735
-0.062560821
-0.060760962
-0.058670975
-0.056331164
-0.053781581
-0.051061334
-0.04820805
-0.045257614
-0.042244167
-0.039200189
-0.036156547
-0.033142384
-0.030184703
-0.027307669
-0.024531802
-0.021873113
-0.019342187
-0.016943246
-0.014673148
-0.012520312
-0.010463746
-0.008472543
-0.006506107
-0.004515175
-0.00244363
-0.000231103
0.00218378
0.004859798
0.007849472
0.011195577
0.014928076
0.019061761
0.023594711
0.028507536
0.03376336
0.039308608
0.045074576
0.050979531
0.056930933
0.062827565
0.068561589
0.074020735
0.07909081
0.083658577
0.087614853
0.09085767
0.093295415
0.094849868
0.095459018
0.09507937
0.093687509
0.091280774
0.08787712
0.083514317
0.078248641
0.072153115
0.065315338
0.057834986
0.049821126
0.041389397
0.032659124
0.023750489
0.014781843
0.005867238
-0.002885756
-0.011377939
-0.01951998
-0.027233514
-0.034451849
-0.041120393
-0.047196879
-0.052651394
-0.057466178
-0.061635095
-0.065162744
-0.068063281
-0.070359045
-0.072079024
-0.073257311
-0.073931707
-0.074142482
-0.073931215
-0.073339767
-0.07240948
-0.071180614
-0.069691924
-0.067980292
-0.066080392
-0.064024444
-0.061842102
-0.059560434
-0.057203955
-0.05479467
-0.052352113
-0.049893425
-0.047433532
-0.044985273
-0.042559366
-0.040164239
-0.037805877
-0.035487607
-0.0332096
-0.030967951
-0.028753568
-0.0265512
-0.024338767
-0.022087034
-0.01975976
-0.017314513
-0.014704239
-0.011879563
-0.0087917
-0.00539575
-0.001654059
0.002460692
0.006962973
0.011852618
0.017113777
0.022714606
0.028607581
0.034730245
0.041006366
0.047347549
0.05365526
0.059823108
0.065739308
0.071289389
0.076359226
0.08083838
0.084623606
0.087622248
0.089755214
0.090959463
0.091190021
0.090421418
0.088648359
0.085885727
0.082168037
0.07754834
0.072096539
0.065897167
0.059046809
0.051651335
0.043822996
0.0356774
0.027330552
0.018896197
0.010483604
0.00219582
-0.00587173
-0.01363236
-0.021009024
-0.027935018
-0.034354501
-0.040222845
-0.045506786
-0.050184342
-0.054244385
-0.057685841
-0.06051662
-0.062752352
-0.064414986
-0.065531397
-0.066132177
-0.066250736
-0.065922653
-0.065185136
-0.064076445
-0.062635272
-0.060900137
-0.058908904
-0.056698392
-0.054304009
-0.051759435
-0.049096456
-0.046344992
-0.043533276
-0.040688065
-0.037834716
-0.034997044
-0.032197017
-0.029454318
-0.026785737
-0.024204424
-0.021718999
-0.019332528
-0.017041411
-0.014834294
-0.012691145
-0.010582782
-0.008471193
-0.006310846
-0.004050936
-0.001638223
0.000979931
0.003852517
0.007021892
0.010521063
0.014371473
0.018581316
0.023144313
0.028039052
0.033228998
0.038663153
0.044277157
0.049994654
0.055728836
0.061384125
0.066857961
0.07204292
0.076829469
0.081109326
0.084779057
0.087743563
0.089919252
0.091236846
0.091643832
0.091106393
0.089610619
0.087162911
0.083789655
0.079536203
0.074465144
0.068653912
0.062191895
0.055177329
0.047714246
0.039909626
0.0318708
0.023703174
0.015508251
0.007381978
-0.000586482
-0.008315525
-0.015731661
-0.022770016
-0.029374796
-0.03549963
-0.041107739
-0.046171874
-0.050674027
-0.054604869
-0.057962967
-0.060753818
-0.062988786
-0.064684129
-0.065860256
-0.066541161
-0.066753856
-0.066527812
-0.06589447
-0.06488681
-0.063538947
-0.061885747
-0.059962497
-0.057804657
-0.055447639
-0.052926544
-0.050275845
-0.047528946
-0.044717681
-0.041871922
-0.039019379
-0.036185494
-0.033393261
-0.030662887
-0.028011308
-0.025451667
-0.022992672
-0.020637598
-0.018382854
-0.016216399
-0.014116514
-0.012051371
-0.009979651
-0.007852192
-0.00561449
-0.003209833
-0.000582804
0.002317106
0.00553209
0.009093212
0.013018318
0.017310596
0.021957684
0.026931368
0.032187882
0.037668688
0.043301618
0.049002333
0.05467615
0.06022034
0.065526847
0.070485322
0.07498626
0.078924195
0.082200877
0.084728327
0.086431665
0.087251639
0.087146712
0.086094556
0.084092792
0.081158979
0.077329835
0.072659719
0.067218588
0.061089607
0.054366576
0.047151256
0.039550674
0.031674453
0.023632237
0.015531227
0.007473897
-0.00044403
-0.008135232
-0.015521981
-0.022536939
-0.029123593
-0.035236425
-0.040840844
-0.045912854
-0.050438389
-0.054412432
-0.057838011
-0.060724993
-0.06308878
-0.06494907
-0.066328844
-0.06725353
-0.067750361
-0.067847919
-0.067575745
-0.066963922
-0.066042616
-0.06484173
-0.063390638
-0.061718008
-0.059851696
-0.057818727
-0.055645327
-0.053356981
-0.05097852
-0.048534234
-0.046047932
-0.043542913
-0.041041804
-0.038566153
-0.036135668
-0.033767013
-0.031472199
-0.029256705
-0.027117717
-0.025042863
-0.023009591
-0.020985233
-0.018927868
-0.016788049
-0.014511311
-0.012041306
-0.009323307
-0.006307738
-0.002953266
0.000770908
0.004883436
0.009389485
0.014279584
0.019528914
0.025097214
0.030929232
0.036955615
0.043094214
0.04925186
0.055326461
0.061209326
0.066787801
0.071948353
0.07658002
0.080577995
0.083847112
0.086305049
0.087885156
0.088538714
0.0882364
0.086968832
0.084746322
0.081598015
0.077570489
0.072725852
0.067139525
0.060897932
0.054096241
0.046836128
0.039223474
0.03136604
0.023371174
0.015343659
0.007383807
-0.000414193
-0.007963725
-0.015186974
-0.022015907
-0.028393028
-0.034271919
-0.039617514
-0.044406013
-0.048624366
-0.052269325
-0.055346218
-0.05786764
-0.059852239
-0.061323605
-0.062309276
-0.06283983
-0.062948093
-0.062668464
-0.062036348
-0.061087644
-0.059858239
-0.058383466
-0.05669754
-0.054833089
-0.052820814
-0.050689349
-0.048465297
-0.046173348
-0.043836404
-0.041475598
-0.039110074
-0.036756593
-0.034429177
-0.032138801
-0.029892926
-0.027694642
-0.02554139
-0.023423497
-0.021322861
-0.019212114
-0.017054599
-0.014805363
-0.012413198
-0.009823467
-0.006981329
-0.003835223
-0.000340487
0.003537151
0.007818684
0.012509747
0.017599335
0.023059303
0.028844639
0.034894529
0.041134084
0.047476484
0.053825264
0.06007662
0.0661217
0.071848913
0.077146265
0.081903786
0.086016146
0.089385481
0.09192435
0.093558607
0.094230047
0.093898656
0.092544191
0.090166881
0.086787221
0.082445079
0.077198344
0.071121258
0.064302446
0.056842568
0.048851598
0.040445816
0.031744739
0.022868187
0.01393366
0.005054104
-0.003663924
-0.01212169
-0.020229346
-0.027906735
-0.035084071
-0.041702623
-0.047715382
-0.053087602
-0.057797146
-0.061834486
-0.065202267
-0.067914508
-0.069995553
-0.071478756
-0.072404877
-0.072820251
-0.072774946
-0.072321033
-0.071511001
-0.070396431
-0.06902694
-0.067449281
-0.065706495
-0.063837269
-0.061875623
-0.059850814
-0.057787353
-0.055705183
-0.05362009
-0.051544232
-0.049486607
-0.047453266
-0.045447377
-0.043469352
-0.041517153
-0.039586609
-0.037671417
-0.035762645
-0.033847738
-0.031909242
-0.02992358
-0.027860227
-0.025681663
-0.023344279
-0.020800178
-0.017999651
-0.014894082
-0.011439139
-0.00759804
-0.003344528
0.001334759
0.006438558
0.011949847
0.017835406
0.024046063
0.030517524
0.037171575
0.043917617
0.050654541
0.057272963
0.063657766
0.069690931
0.07525465
0.080234682
0.084523846
0.088025474
0.090656605
0.092350691
0.093059676
0.092755413
0.091430353
0.089097444
0.085789386
0.08155748
0.076470048
0.070610325
0.064073884
0.056965749
0.049397373
0.041483688
0.033340377
0.02508143
0.016817031
0.008651777
0.000683152
-0.006999913
-0.01431836
-0.021204122
-0.027600971
-0.033465002
-0.038764635
-0.043480085
-0.047602446
-0.051132545
-0.054079661
-0.056460192
-0.058296308
-0.059614578
-0.060444666
-0.060818318
-0.060768648
-0.060329628
-0.059535704
-0.058421519
-0.057021637
-0.055370177
-0.053500364
-0.051444074
-0.049231475
-0.046890855
-0.044448556
-0.041929049
-0.039355137
-0.03674831
-0.034129066
-0.031517055
-0.028930918
-0.026387799
-0.023902538
-0.021486597
-0.019146676
-0.016883262
-0.014689395
-0.012549724
-0.010439829
-0.008326055
-0.006166195
-0.003911153
-0.001507446
0.001099667
0.003962738
0.007128612
0.010635166
0.014508597
0.018761285
0.023390243
0.028376221
0.033683576
0.039260794
0.045041447
0.050945517
0.056881182
0.06274699
0.068434255
0.073829723
0.07881861
0.083288016
0.087130576
0.090248113
0.092554994
0.093980966
0.094473376
0.093998803
0.092544075
0.090116553
0.086743618
0.082471411
0.077363014
0.071496263
0.064961328
0.057858085
0.050293334
0.042377981
0.034224302
0.0259434
0.01764287
0.009424724
0.001383662
-0.00639437
-0.013833331
-0.020867875
-0.027443693
-0.033517499
-0.039056736
-0.044039096
-0.048451936
-0.05229162
-0.055562765
-0.058277385
-0.060453929
-0.062116313
-0.06329295
-0.064015769
-0.064319293
-0.064239827
-0.06381471
-0.063081601
-0.062077791
-0.060839602
-0.059401847
-0.057797421
-0.056057076
-0.054209377
-0.052280762
-0.050295653
-0.048276513
-0.046243822
-0.044215933
-0.042208796
-0.040235549
-0.038305961
-0.036425722
-0.034595621
-0.03281072
-0.031059535
-0.029323266
-0.027575136
-0.025780054
-0.02389492
-0.021869783
-0.019649903
-0.017178545
-0.014400215
-0.011264083
-0.007727484
-0.003759297
0.000657116
0.005521789
0.010817004
0.016507087
0.022538983
0.028843454
0.035336762
0.041922699
0.048494817
0.054938772
0.061134783
0.066960401
0.072293765
0.077017208
0.081020946
0.084206595
0.086490384
0.087805976
0.088106773
0.087367501
0.085584954
0.082777925
0.078986316
0.07426948
0.068703977
0.062380931
0.055403191
0.047882449
0.039936498
0.031686714
0.023255619
0.014764435
0.006330596
-0.001934669
-0.00992863
-0.017559079
-0.024745998
-0.031422799
-0.037537003
-0.043050221
-0.047937531
-0.052186436
-0.055795598
-0.058773394
-0.061136444
-0.062908202
-0.064117707
-0.064798491
-0.064987637
-0.064724917
-0.064051982
-0.063011659
-0.061647395
-0.060002705
-0.058120473
-0.056042137
-0.053806864
-0.051450921
-0.049007291
-0.046505519
-0.043971717
-0.041428715
-0.038896277
-0.036391286
-0.033927871
-0.031517505
-0.029169103
-0.02688909
-0.024681266
-0.022546264
-0.020480557
-0.018475118
-0.016513954
-0.014572758
-0.012618071
-0.010607299
-0.008489775
-0.006208928
-0.003705463
-0.000921359
0.002195791
0.0056886
0.009586347
0.01390237
0.018632502
0.023754481
0.029228237
0.034996952
0.040988729
0.047118632
0.053290912
0.059401362
0.065339837
0.070992902
0.076246537
0.080988882
0.085112994
0.088519576
0.091119672
0.092837261
0.093611641
0.093399532
0.092176743
0.089939259
0.086703642
0.0825067
0.077404433
0.071470249
0.064792504
0.05747157
0.04961673
0.041343164
0.032769089
0.024013015
0.01519113
0.006414913
-0.002210941
-0.010590235
-0.018636582
-0.026274316
-0.033439057
-0.040078028
-0.046150124
-0.051625756
-0.056486438
-0.060724124
-0.064340402
-0.067345632
-0.069758078
-0.07160296
-0.072911385
-0.07371915
-0.0740655
-0.073991927
-0.073541009
-0.07275528
-0.071676279
-0.07034382
-0.06879544
-0.067065995
-0.065187395
-0.063188512
-0.061095235
-0.058930571
-0.056714781
-0.054465601
-0.05219852
-0.04992696
-0.047662328
-0.045413942
-0.043188792
-0.040991194
-0.038822309
-0.036679376
-0.034554642
-0.032434178
-0.030296984
-0.028114558
-0.025850979
-0.023463612
-0.020904569
-0.018122868
-0.015067161
-0.011688899
-0.007945702
-0.003804668
0.000754737
0.005738435
0.011136247
0.01692119
0.023049485
0.029461148
0.036081084
0.042820673
0.049579842
0.056249585
0.062714815
0.068857412
0.074559314
0.079705662
0.084188025
0.087907622
0.090778311
0.092729151
0.093706521
0.093675747
0.092622093
0.090551057
0.087488086
0.08347777
0.078582464
0.072880311
0.066462869
0.059432567
0.05189999
0.043980921
0.035793273
0.027454142
0.019077118
0.010769941
0.002632526
-0.005244569
-0.012781193
-0.019908262
-0.0265681
-0.032714508
-0.038312619
-0.04333856
-0.047778899
-0.051629859
-0.054896357
-0.0575909
-0.059732411
-0.061345043
-0.062457094
-0.063100042
-0.063307643
-0.06311503
-0.062557899
-0.061671806
-0.060491625
-0.059051151
-0.057382852
-0.055517766
-0.053485558
-0.051314689
-0.049032593
-0.046665794
-0.044239871
-0.041779113
-0.039305965
-0.036840503
-0.034400061
-0.031998918
-0.029647918
-0.02735401
-0.02511966
-0.022942102
-0.020812396
-0.018714333
-0.016623477
-0.014506802
-0.012323299
-0.010025707
-0.007563028
-0.004883369
-0.001936887
0.001321197
0.004927661
0.008908601
0.013277122
0.01803152
0.023154168
0.028611224
0.0343531
0.040315442
0.046420497
0.05257876
0.058690809
0.064649253
0.070340952
0.075649777
0.080459987
0.084660079
0.08814685
0.090829326
0.092632223
0.093498643
0.093391885
0.092296288
0.090217125
0.087179673
0.083227667
0.078421346
0.072835207
0.066555598
0.059678235
0.052305746
0.044545278
0.036506222
0.028298066
0.020028446
0.011801428
0.003715951
-0.004135656
-0.01166902
-0.018808795
-0.025489506
-0.031656256
-0.037265358
-0.042284812
-0.046694474
-0.050485818
-0.053661255
-0.056233066
-0.058222072
-0.059656195
-0.060569001
-0.060998342
-0.06098514
-0.060572249
-0.059803401
-0.058722269
-0.057371676
-0.055792928
-0.054025284
-0.052105602
-0.05006815
-0.04794454
-0.04576372
-0.043551927
-0.041332464
-0.03912532
-0.036946719
-0.034808544
-0.032717492
-0.030673998
-0.028671217
-0.026694293
-0.024719969
-0.022716603
-0.020644704
-0.018458215
-0.016106578
-0.013537501
-0.010700235
-0.007549028
-0.004046362
-0.000165646
0.004106713
0.008769798
0.013807203
0.01918669
0.024860547
0.030766471
0.03682871
0.042959314
0.04905957
0.055021814
0.0607318
0.06607175
0.070924002
0.075174978
0.078719144
0.081462752
0.083327188
0.084251746
0.084195674
0.083139407
0.081084918
0.078055193
0.074093018
0.069259213
0.063630357
0.057296138
0.050356507
0.042918762
0.035094576
0.026997145
0.018738612
0.010427867
0.002168651
-0.005942061
-0.01381542
-0.021371788
-0.028541476
-0.035265089
-0.041493489
-0.047187486
-0.05231735
-0.056862228
-0.060809518
-0.064154273
-0.066898669
-0.069051498
-0.070627665
-0.071647678
-0.072137124
-0.072126027
-0.071648096
-0.070739927
-0.069440204
-0.067788921
-0.065826635
-0.063593839
-0.061130448
-0.058475332
-0.055665848
-0.052737376
-0.049722958
-0.046653186
-0.043556324
-0.040458535
-0.037384051
-0.034355229
-0.031392519
-0.028514269
-0.025736302
-0.023071272
-0.020527825
-0.01810959
-0.015813935
-0.013630535
-0.011540036
-0.009513369
-0.007512053
-0.005489322
-0.003391741
-0.001161203
0.001262519
0.003938603
0.00692157
0.010257618
0.013981288
0.018112729
0.022655706
0.027596408
0.032903189
0.038527183
0.044403682
0.050454023
0.056587696
0.062704531
0.068697079
0.074453221
0.079858955
0.084801199
0.089170585
0.092864253
0.095788699
0.097862577
0.099019361
0.099209656
0.098402981
0.096588756
0.093776401
0.089994634
0.085290205
0.079726287
0.073380681
0.066343843
0.058716655
0.050607921
0.042131645
0.033404129
0.024540999
0.015654466
0.006851067
-0.001770134
-0.010118978
-0.018115351
-0.025690001
-0.032785083
-0.039354463
-0.045363738
-0.050789869
-0.055620464
-0.059852897
-0.063493277
-0.066555231
-0.069058602
-0.071028263
-0.072493168
-0.073485569
-0.074040305
-0.074194153
-0.073985217
-0.073452281
-0.072634077
-0.071568471
-0.070291645
-0.068837392
-0.067236593
-0.065516876
-0.063702431
-0.06181396
-0.059868758
-0.057880954
-0.055861935
-0.053820811
-0.051764694
-0.049698744
-0.04762608
-0.045547563
-0.043461198
-0.041360978
-0.039235246
-0.037064924
-0.034822062
-0.032469189
-0.029959777
-0.027239945
-0.024251357
-0.02093499
-0.017235209
-0.013103638
-0.008502601
-0.003408029
0.002188261
0.008276998
0.014830575
0.02180292
0.029130116
0.036731673
0.044512262
0.05236384
0.060167955
0.067798043
0.075121743
0.082003516
0.088307853
0.09390307
0.098665535
0.102484044
0.105264008
0.106931053
0.107433702
0.10674502
0.104863241
0.101811407
0.097635981
0.092404526
0.08620277
0.079131499
0.07130348
0.062840494
0.053870493
0.044524906
0.034936085
0.025234836
0.015548001
0.005996137
-0.003308629
-0.012264566
-0.020782042
-0.028784805
-0.036210687
-0.043011724
-0.049153737
-0.054615506
-0.059387741
-0.063472021
-0.066879748
-0.069631093
-0.071753867
-0.073282224
-0.074255268
-0.07471567
-0.07470834
-0.074279136
-0.073473687
-0.072336455
-0.070910048
-0.069234718
-0.067348043
-0.065284766
-0.063076806
-0.060753434
-0.058341594
-0.055866265
-0.053350765
-0.050816948
-0.048285197
-0.045774086
-0.043299621
-0.040874154
-0.038505148
-0.03619396
-0.033934545
-0.031711942
-0.029500838
-0.027264799
-0.024956575
-0.022519625
-0.019890708
-0.017003219
-0.013791082
-0.010192941
-0.006156303
-0.001641222
0.003376702
0.008904125
0.014928541
0.021417698
0.028319881
0.035564964
0.043066014
0.050721252
0.058416229
0.066026136
0.073418321
0.080455285
0.086998404
0.092912168
0.098068501
0.102350875
0.105658036
0.107907164
0.109036349
0.109006356
0.107801642
0.105430499
0.101924343
0.097336344
0.091739536
0.085224422
0.077896196
0.069871692
0.0612761
0.052239553
0.042893745
0.033368756
0.023790285
0.014277399
0.004940797
-0.004118493
-0.012810072
-0.021054831
-0.028785436
-0.03594668
-0.042495665
-0.048401717
-0.053646002
-0.058220885
-0.062129028
-0.065382253
-0.068000233
-0.070009094
-0.071439911
-0.072327146
-0.072707184
-0.072617134
-0.072094044
-0.071174491
-0.069894368
-0.068288756
-0.066391825
-0.064236718
-0.061855491
-0.059279093
-0.056537361
-0.053659036
-0.050671807
-0.04760239
-0.044476689
-0.041319986
-0.038156962
-0.035011366
-0.031905276
-0.028857935
-0.025884102
-0.022991984
-0.020181042
-0.017440098
-0.014746347
-0.012065655
-0.009354052
-0.006559952
-0.003626828
-0.000496306
0.002888377
0.006578749
0.010617611
0.015036022
0.019850973
0.025063705
0.030658594
0.036602552
0.042844893
0.049317699
0.055936762
0.062603072
0.069204854
0.075620243
0.08172065
0.087374671
0.092452342
0.096829576
0.100392609
0.103042188
0.104697113
0.105296798
0.104802753
0.103199075
0.100492171
0.096709897
0.091900319
0.086130228
0.079483369
0.072058216
0.063965308
0.055324315
0.046260909
0.036903474
0.027379779
0.017813859
0.008323275
-0.000983144
-0.010007024
-0.018661635
-0.026872588
-0.034578106
-0.041728924
-0.048287873
-0.054229161
-0.059537396
-0.064206514
-0.068238698
-0.071643403
-0.074436538
-0.076639638
-0.078278883
-0.079383975
-0.079987039
-0.080121728
-0.079822551
-0.079124316
-0.078061709
-0.076669094
-0.074980546
-0.073029989
-0.070851364
-0.068478761
-0.065946502
-0.06328909
-0.0605409
-0.057735577
-0.054905117
-0.052078767
-0.049281944
-0.04653522
-0.043853347
-0.041244284
-0.038708201
-0.036236422
-0.033810351
-0.031400612
-0.028966905
-0.026459008
-0.023818879
-0.020983562
-0.017888736
-0.014472775
-0.010680957
-0.006469345
-0.001808009
0.003316585
0.008900034
0.014919269
0.021332595
0.02808039
0.035086295
0.042258738
0.049492696
0.056671754
0.063670563
0.070357776
0.076599506
0.082263247
0.087222068
0.091358812
0.094570145
0.09677026
0.097893963
0.097898884
0.096766717
0.094503508
0.091139023
0.086725187
0.081333771
0.075053687
0.067988127
0.060251554
0.051966667
0.043261414
0.034266043
0.02511017
0.015920012
0.006815869
-0.002090065
-0.010695465
-0.018909196
-0.026652315
-0.03385888
-0.040476522
-0.046466664
-0.051804326
-0.056477514
-0.060486112
-0.063840345
-0.066559059
-0.06866806
-0.0701986
-0.071185986
-0.07166834
-0.071685559
-0.071278472
-0.070488124
-0.069355172
-0.067919365
-0.066219121
-0.064291181
-0.062170333
-0.0598892
-0.057478101
-0.054964961
-0.05237534
-0.04973256
-0.047057879
-0.04437061
-0.041688086
-0.039025384
-0.036394801
-0.033805122
-0.031260634
-0.028759947
-0.02629486
-0.023849494
-0.021399687
-0.018912677
-0.016347216
-0.013654396
-0.010779291
-0.007663439
-0.004248002
-0.000477405
0.003696801
0.008312157
0.013391923
0.018942393
0.024951095
0.031385837
0.038194616
0.045306469
0.052633258
0.060072116
0.067508163
0.074817352
0.081869408
0.088530841
0.094668047
0.100150596
0.104854673
0.108666513
0.111485688
0.113228136
0.113828773
0.113243608
0.111451262
0.108453713
0.104276265
0.098966789
0.092594285
0.08524688
0.077029428
0.068060671
0.058469982
0.048393881
0.037972578
0.027346704
0.016654422
0.006029063
-0.004402801
-0.014523055
-0.02422369
-0.033408421
-0.041994131
-0.049912028
-0.057108427
-0.063545183
-0.069199708
-0.074064472
-0.078146036
-0.081463674
-0.084047707
-0.085937647
-0.087180209
-0.0878272
-0.087933456
-0.087555039
-0.086747757
-0.085565971
-0.084061644
-0.082283612
-0.080277123
-0.078083587
-0.075740476
-0.073281343
-0.070736037
-0.06813109
-0.065490128
-0.062834146
-0.060181548
-0.057548017
-0.054946264
-0.052385666
-0.049871804
-0.047405873
-0.044983782
-0.042594888
-0.040220566
-0.037833011
-0.035394614
-0.032858338
-0.030169306
-0.02726738
-0.024090202
-0.020576458
-0.016669228
-0.012319259
-0.007488046
-0.002150655
0.003701896
0.010060915
0.016899065
0.024170118
0.031809328
0.039734357
0.047846724
0.05603373
0.064170753
0.072123792
0.079752362
0.086912904
0.093462797
0.099264704
0.104190969
0.108127857
0.110979499
0.112671305
0.113152579
0.112398136
0.110408897
0.107211546
0.102857326
0.097419976
0.090992958
0.083686209
0.075622618
0.066934324
0.057758912
0.048235743
0.03850264
0.028692993
0.01893331
0.009341154
2.35E-05
-0.008924593
-0.017420592
-0.025395139
-0.032792157
-0.039568802
-0.045695055
-0.051153
-0.055935771
-0.060046274
-0.063495819
-0.066302778
-0.068491369
-0.070090612
-0.071133328
-0.071655131
-0.071693545
-0.071287309
-0.070475813
-0.069298547
-0.067794551
-0.066001964
-0.063957775
-0.061697714
-0.059256153
-0.056665994
-0.053958538
-0.051163306
-0.048307838
-0.04541748
-0.04251506
-0.039620459
-0.036750241
-0.033917468
-0.031131544
-0.028397733
-0.025716197
-0.023080651
-0.020476898
-0.017881667
-0.015262221
-0.012577056
-0.009777581
-0.006810559
-0.003621116
-0.000156137
0.003632232
0.007783287
0.012324838
0.017270725
0.022618848
0.028349915
0.034427007
0.04079593
0.047386178
0.054112417
0.060876427
0.067569512
0.074075302
0.080272753
0.08603921
0.091253594
0.095799742
0.09956981
0.102467601
0.104411698
0.105338291
0.105203486
0.103984891
0.101682407
0.098318239
0.093936085
0.0885995
0.082389428
0.075401147
0.067740992
0.05952319
0.050866981
0.041894025
0.032726045
0.023482687
0.014279487
0.00522593
-0.003576389
-0.012035455
-0.020070229
-0.02761165
-0.034603196
-0.041001034
-0.046773766
-0.05190189
-0.056377101
-0.060201396
-0.063385925
-0.065949678
-0.067918183
-0.069322317
-0.070197178
-0.070580964
-0.070513862
-0.070037037
-0.069191818
-0.06801905
-0.066558569
-0.064848787
-0.062926418
-0.060826398
-0.058581899
-0.056224345
-0.053783442
-0.051287213
-0.048762054
-0.046232804
-0.043722721
-0.041253219
-0.038843195
-0.0365079
-0.034257447
-0.032095172
-0.030016133
-0.028005955
-0.026040067
-0.024083324
-0.022090208
-0.020005854
-0.017768052
-0.015310207
-0.012565066
-0.009468838
-0.005965349
-0.002009849
0.002427737
0.007360246
0.012781485
0.018665359
0.02496593
0.031618239
0.038539677
0.045631795
0.052782503
0.059868565
0.066758318
0.073314706
0.079398731
0.084873405
0.089608108
0.093483056
0.096393527
0.098253561
0.098998811
0.098588348
0.097005431
0.094257388
0.090374768
0.085409852
0.079434705
0.072538909
0.064827095
0.056416287
0.04743304
0.038010402
0.028284817
0.01839313
0.008469757
-0.001355948
-0.010962004
-0.020235756
-0.029075481
-0.037391714
-0.04510822
-0.052162562
-0.058506192
-0.064104125
-0.06893432
-0.072986876
-0.076263097
-0.078774492
-0.080541795
-0.081593953
-0.081967104
-0.08170356
-0.080850746
-0.07946008
-0.077585875
-0.07528431
-0.072612493
-0.069627597
-0.066386049
-0.062942764
-0.059350474
-0.055659141
-0.051915493
-0.048162694
-0.044440122
-0.040783114
-0.037222626
-0.033784821
-0.030490677
-0.027355523
-0.024388204
-0.021589718
-0.018951522
-0.016453857
-0.014064576
-0.011738907
-0.009420398
-0.007043074
-0.004534723
-0.001821094
0.001169432
0.004501258
0.008227465
0.012386357
0.016998846
0.022066795
0.027572278
0.033477588
0.039725947
0.046242861
0.05293799
0.059707458
0.066436547
0.073002648
0.079278317
0.085134395
0.090443234
0.095082014
0.098936034
0.101901919
0.103890589
0.104829833
0.104666435
0.103367886
0.10092367
0.097345981
0.092669725
0.0869517
0.080269011
0.072716752
0.064405089
0.055455996
0.045999827
0.03617188
0.026109073
0.01594682
0.005816252
-0.004158236
-0.013861207
-0.023188187
-0.032047314
-0.040360487
-0.048063925
-0.055108165
-0.061457595
-0.067089741
-0.071994425
-0.076172862
-0.079636614
-0.08240635
-0.084510446
-0.085983562
-0.086865241
-0.087198546
-0.087028791
-0.08640244
-0.085366207
-0.083966316
-0.082247843
-0.08025411
-0.078026146
-0.075602256
-0.073017765
-0.070304983
-0.067493384
-0.06460993
-0.061679454
-0.058725024
-0.055768141
-0.052828541
-0.049923497
-0.047066748
-0.044267333
-0.041528455
-0.038846308
-0.036208762
-0.033594124
-0.030970427
-0.028295589
-0.025518567
-0.022581491
-0.019422599
-0.015979741
-0.012194166
-0.008014372
-0.003399895
0.001675302
0.007220194
0.013225029
0.019660623
0.026478531
0.033611883
0.040976758
0.048474079
0.055992003
0.06340875
0.070595815
0.077421447
0.083754229
0.089466593
0.094438209
0.098559296
0.10173377
0.103882132
0.104944009
0.104880211
0.103674018
0.10133151
0.097880977
0.093371639
0.087871916
0.08146735
0.074258245
0.066357019
0.057885309
0.048970868
0.039744362
0.030336231
0.020873663
0.01147782
0.002261447
-0.006673009
-0.015234725
-0.023345335
-0.030939321
-0.037964014
-0.044379268
-0.050156774
-0.055279017
-0.059738044
-0.063534291
-0.066675574
-0.069176173
-0.071056019
-0.072339985
-0.073057291
-0.073240992
-0.072927534
-0.072156296
-0.070968988
-0.06940884
-0.067519605
-0.06534447
-0.062925114
-0.060301059
-0.057509324
-0.054584334
-0.051557974
-0.048459695
-0.045316702
-0.042154226
-0.038995765
-0.035863115
-0.032775994
-0.02975112
-0.026800869
-0.023931775
-0.021142971
-0.01842462
-0.015756665
-0.013108468
-0.010439649
-0.007701898
-0.004841413
-0.001801828
0.001472494
0.005033029
0.008923727
0.013178019
0.017816456
0.022844992
0.028253845
0.034016877
0.040091537
0.046419284
0.05292643
0.05952534
0.066115924
0.072587431
0.078820669
0.08469086
0.090071251
0.094837307
0.098871031
0.102065036
0.104326265
0.105579303
0.105769115
0.104863016
0.102851738
0.099749604
0.095593871
0.090443313
0.084376
0.077486401
0.069882151
0.061680759
0.053006314
0.043986283
0.03474849
0.025418309
0.016116114
0.00695508
-0.001960591
-0.010537032
-0.018691691
-0.026354007
-0.03346585
-0.039981727
-0.045868782
-0.051106466
-0.055685714
-0.059607708
-0.062882463
-0.065527406
-0.067566048
-0.069026826
-0.069942122
-0.070347377
-0.070280306
-0.069780228
-0.06888747
-0.067642786
-0.066086767
-0.064259255
-0.062198829
-0.05994242
-0.05752513
-0.054980227
-0.052339284
-0.049632354
-0.046888067
-0.044133497
-0.041393674
-0.03869078
-0.036043251
-0.033464953
-0.030964309
-0.028543169
-0.026195436
-0.023905725
-0.021648364
-0.019387054
-0.017075516
-0.01465926
-0.01207835
-0.009270911
-0.006177111
-0.002743298
0.001074114
0.00530531
0.009964483
0.015048086
0.020534059
0.02638194
0.032533668
0.038914847
0.045436357
0.051996215
0.058481712
0.064772017
0.070741424
0.076263089
0.081212988
0.085473833
0.088938711
0.091514249
0.093123239
0.093706747
0.093225689
0.091661847
0.089018311
0.085319301
0.080609366
0.074951932
0.068427279
0.06113008
0.053166669
0.044652197
0.035707708
0.026457205
0.017024824
0.007532246
-0.001903543
-0.011172001
-0.020170291
-0.028804258
-0.036989307
-0.044651263
-0.051727127
-0.058165642
-0.06392759
-0.068985729
-0.073324226
-0.076937603
-0.079829402
-0.082010861
-0.083499761
-0.084319506
-0.084498446
-0.084069332
-0.083068802
-0.081536836
-0.079516189
-0.077051834
-0.074190452
-0.070980045
-0.067469567
-0.06370852
-0.059746467
-0.055632518
-0.051414823
-0.047140042
-0.042852814
-0.038595236
-0.034406238
-0.030320689
-0.026368116
-0.022570999
-0.018942712
-0.015485255
-0.012187197
-0.009022526
-0.005950983
-0.002919742
0.000134078
0.003280335
0.006592183
0.010141709
0.013995196
0.018208494
0.022822983
0.027862472
0.033331213
0.03921296
0.045470816
0.052047712
0.058867518
0.065836802
0.072847073
0.079777324
0.086496848
0.092868394
0.098751727
0.104007554
0.108501633
0.112108894
0.114717479
0.116232633
0.116580236
0.115709641
0.113595632
0.110239386
0.105668383
0.099935222
0.093115435
0.085304511
0.076614447
0.067170212
0.057106339
0.046563641
0.035685993
0.024617213
0.013498154
0.002464045
-0.008357948
-0.01885084
-0.028909457
-0.03844155
-0.047368453
-0.055625408
-0.063161564
-0.069939682
-0.075935646
-0.081137932
-0.085547087
-0.0891751
-0.092044499
-0.094187127
-0.095642628
-0.096456806
-0.096680001
-0.096365532
-0.095568223
-0.094343078
-0.092744154
-0.090823686
-0.088631411
-0.086213997
-0.083614613
-0.080872742
-0.078024325
-0.075102102
-0.072135936
-0.069152982
-0.066177568
-0.063230805
-0.060330046
-0.057488246
-0.054713214
-0.052006621
-0.049362706
-0.046766825
-0.044194152
-0.041608944
-0.038964665
-0.03620504
-0.033265929
-0.030077985
-0.026570185
-0.022674156
-0.018328782
-0.013484429
-0.008106502
-0.002178292
0.004297028
0.011295309
0.018771193
0.026658728
0.034872808
0.043311178
0.051856825
0.060380745
0.068745062
0.076806233
0.084418166
0.091435388
0.097716511
0.103128039
0.107548369
0.110871767
0.1130121
0.113906056
0.113515526
0.111828978
0.108861755
0.104655298
0.099275371
0.092809535
0.085364147
0.077061088
0.068034417
0.05842705
0.048387447
0.038066206
0.027612659
0.017171572
0.006880106
-0.003134841
-0.012758848
-0.021891743
-0.030448916
-0.038362151
-0.045579973
-0.052067401
-0.057805062
-0.062787689
-0.067022236
-0.070525894
-0.073324235
-0.075449494
-0.076938989
-0.077833684
-0.078177003
-0.078014003
-0.077390882
-0.076354624
-0.074952515
-0.07323137
-0.071236603
-0.06901137
-0.066595819
-0.064026443
-0.06133562
-0.058551579
-0.055698837
-0.052798912
-0.049871054
-0.046932729
-0.043999677
-0.041085591
-0.038201568
-0.035355324
-0.032550077
-0.029783216
-0.027045043
-0.024317649
-0.021573929
-0.018776985
-0.015880325
-0.01282913
-0.009562648
-0.006017591
-0.002132266
0.002148853
0.006870596
0.012063182
0.01773933
0.02389249
0.030496092
0.037503663
0.044849706
0.052451172
0.060209342
0.068012036
0.075736122
0.083250161
0.090417122
0.097097339
0.103152046
0.108447472
0.112859113
0.116275667
0.118602489
0.119764652
0.119709575
0.118408991
0.115860048
0.112085496
0.1071329
0.101072889
0.093996606
0.086012609
0.077243344
0.067821436
0.057886093
0.047579787
0.037045148
0.026422068
0.015845106
0.005441241
-0.004672044
-0.014388298
-0.023613236
-0.032265524
-0.040277223
-0.047593904
-0.054174536
-0.0599912
-0.065028661
-0.069283647
-0.072763884
-0.075486969
-0.077479165
-0.078774158
-0.079411839
-0.079437119
-0.078898774
-0.077848229
-0.076338249
-0.074421603
-0.072149887
-0.069572695
-0.066737183
-0.063687927
-0.060467029
-0.0571144
-0.053668074
-0.050164372
-0.046637888
-0.043121341
-0.039645189
-0.036236953
-0.032920391
-0.029714707
-0.026633769
-0.023685067
-0.020868256
-0.018173451
-0.01557974
-0.013054422
-0.0105534
-0.008022887
-0.005402194
-0.002627135
0.000366212
0.003637582
0.007238706
0.011209942
0.015577519
0.020351481
0.025524381
0.031070719
0.036946978
0.043092181
0.049428966
0.05586513
0.062295513
0.068604165
0.074666914
0.080354548
0.085536607
0.090085648
0.093881689
0.096816535
0.09879772
0.099751754
0.099626546
0.098392937
0.09604534
0.092601424
0.088100924
0.082603792
0.076187924
0.068946536
0.060985298
0.05241941
0.043370815
0.033965574
0.024331344
0.014594927
0.004879856
-0.004695936
-0.014022256
-0.022998434
-0.031534687
-0.039553098
-0.046988172
-0.053787023
-0.059909164
-0.065325952
-0.070019748
-0.073982937
-0.077216951
-0.079731441
-0.081543681
-0.082678158
-0.083166157
-0.083045192
-0.082358223
-0.081152613
-0.079478881
-0.077389376
-0.074937032
-0.072174278
-0.06915216
-0.06591974
-0.062523838
-0.059009001
-0.055417545
-0.051789535
-0.048162576
-0.044571386
-0.041047162
-0.037616737
-0.034301489
-0.031116144
-0.028067651
-0.02515402
-0.022363032
-0.019671063
-0.017042465
-0.014429812
-0.011775162
-0.009012346
-0.006070185
-0.002876465
0.000637646
0.004533143
0.008859018
0.013648643
0.018917008
0.024658948
0.030848336
0.037438222
0.044361854
