5.819999999999999843e-05
1.670152822666496617e-01
2.588448619120851668e-01
2.406144481735616181e-01
1.361900380071396355e-01
1.490189839294692176e-02
-4.634127029113099122e-02
-4.940781395435890622e-03
1.242149880003423634e-01
2.768503841782543606e-01
3.742841648319526482e-01
3.663198758446125636e-01
2.587784969174594663e-01
1.107264176875868561e-01
2.874861175260812196e-03
-5.748631967173997714e-03
9.060059165454521779e-02
2.416149258456582738e-01
3.684710462527134300e-01
4.067255715116857018e-01
3.413036232439944362e-01
2.146074390180201796e-01
1.033503474051660903e-01
7.668205377641762466e-02
1.583198039964603954e-01
3.132350732154431383e-01
4.661398927204886133e-01
5.417830724963632605e-01
5.052458388415176360e-01
3.804263447773617579e-01
2.367230980694766118e-01
1.511613817527462655e-01
1.665124330230014771e-01
2.681202200085527343e-01
3.920017090690237627e-01
4.598256003388638824e-01
4.217963167417368986e-01
2.841771161604342288e-01
1.065059346386083572e-01
-3.001908398463885852e-02
-6.588293192102351314e-02
5.132004783424640171e-03
1.331619444859605539e-01
2.397846574399410680e-01
2.609030713901959730e-01
1.817237673266811071e-01
4.485782373709595872e-02
-7.285039264624743049e-02
-1.022005120265699618e-01
-1.950513599812046805e-02
1.400987715391459887e-01
3.011398373214297930e-01
3.881134809236228556e-01
3.657837104257702920e-01
2.576750009695649157e-01
1.327640562889008946e-01
6.761483170083418259e-02
1.045062250901538647e-01
2.282673388794624336e-01
3.743866586237516447e-01
4.640006601204088588e-01
4.467889542387371016e-01
3.285095645032275469e-01
1.682273595317202441e-01
4.671170326239153237e-02
2.310400825260536251e-02
1.033127637269270066e-01
2.372368755904938620e-01
3.462937941217312243e-01
3.663061799013217490e-01
2.824813808893188449e-01
1.375111308216159234e-01
8.397182466666187894e-03
-3.543093176027139329e-02
3.000872869733497983e-02
1.699315530594010248e-01
3.092679023089356938e-01
3.729551887968932666e-01
3.262300637061765207e-01
1.931102638791991899e-01
4.307623237087261636e-02
-4.680349805454460388e-02
-3.375359351519890277e-02
6.753471068886290896e-02
1.930041933185877578e-01
2.642117579988726983e-01
2.312154067575113714e-01
1.001020565266995677e-01
-6.979039344865795025e-02
-1.974803853744276361e-01
-2.236784538636228392e-01
-1.423938533629874326e-01
-3.711229715663316719e-03
1.137390838540469629e-01
1.456706916707963262e-01
7.712462091412057574e-02
-4.942611213153359079e-02
-1.572452709279342220e-01
-1.772093704518727941e-01
-8.567631906141839893e-02
8.220261001368538156e-02
2.509713049514246674e-01
3.451678182306593401e-01
3.296232530928206450e-01
2.279499010215189914e-01
1.092287035895629782e-01
5.014001264918201139e-02
9.308720210482449020e-02
2.230279041876408463e-01
3.755790340345329659e-01
4.720012088898702940e-01
4.620897538618939926e-01
3.517061293442663716e-01
2.000031256853911643e-01
8.782028199204826302e-02
7.435043684719175316e-02
1.655347497405793844e-01
3.112866302594161083e-01
4.330207793836399754e-01
4.665408369653246679e-01
3.970196938129820774e-01
2.670997721413749804e-01
1.537188736909489983e-01
1.262278190416852297e-01
2.085147910229651902e-01
3.656863431785323248e-01
5.225494611566918746e-01
6.039050268496803930e-01
5.748420851687469080e-01
4.592221931782711208e-01
3.263637678965099487e-01
2.531703266839298583e-01
2.822520216646425828e-01
3.987549778230514708e-01
5.384644020663520436e-01
6.227870210753818636e-01
6.016401996625065918e-01
4.809818721069599734e-01
3.200348083095811424e-01
1.996815621833178400e-01
1.791307932852310714e-01
2.643124588983286061e-01
4.051028227621754629e-01
5.228556823247691998e-01
5.532931792156826623e-01
4.814899568760678261e-01
3.499776954063012480e-01
2.355753750018745318e-01
2.075112534068289660e-01
2.895513091902056080e-01
4.466838889562966264e-01
6.036047350904911735e-01
6.850125425871572693e-01
6.559045250431717600e-01
5.400613977615512651e-01
4.067320131252413207e-01
3.327617483020835487e-01
3.607140918497930837e-01
4.756998426946386638e-01
6.134799010580971323e-01
6.954472896413046445e-01
6.715157252259320586e-01
5.476487142892422222e-01
3.830826360004723208e-01
2.587202986135403449e-01
2.337958325646314062e-01
3.142685120672383259e-01
4.500463887837466426e-01
5.625160960675618105e-01
5.874322347071472272e-01
5.099002922365195589e-01
3.724803971008564529e-01
2.520174604877080116e-01
2.177637249277583620e-01
2.935082773118742328e-01
4.442630862857814278e-01
5.947494962387617212e-01
6.696951964831137083e-01
6.341310417858170290e-01
5.118771508218629140e-01
3.722283543342539969e-01
2.920828740815831215e-01
3.140636609027557258e-01
4.233469411793174264e-01
5.557640193991745248e-01
6.327819898399488219e-01
6.043908070668486676e-01
4.766307864572956188e-01
3.088139900768854251e-01
1.819160045100892409e-01
1.552392134966796289e-01
2.348052610298244081e-01
3.705776100999417788e-01
4.839905994072469242e-01
5.108384985793238409e-01
4.362585059667755671e-01
3.028347434272155025e-01
1.874284759370441755e-01
1.593002719551374902e-01
2.422385017694790865e-01
4.012435992012655106e-01
5.610122792784529855e-01
6.462321520949537712e-01
6.218764071856983655e-01
5.116879921093069328e-01
3.848634275775454361e-01
3.181803677424282495e-01
3.541185620792884903e-01
4.776889654862629953e-01
6.245371385680160703e-01
7.159265240329719671e-01
7.016287491994591674e-01
5.874547682648098013e-01
4.324801259940506126e-01
3.174406613908932195e-01
3.013996625009731090e-01
3.901441853210245725e-01
5.334115259694285349e-01
6.524222886478734384e-01
6.827734718930267288e-01
6.094253883607363420e-01
4.748092713048538416e-01
3.556607872186410280e-01
3.211453622769810945e-01
3.949899167305612746e-01
5.421705197829341794e-01
6.873998498946625180e-01
7.554243610886367533e-01
7.113204767325476130e-01
5.789792081020195269e-01
4.277893207399423581e-01
3.347632244888874564e-01
3.426552819489300794e-01
4.367873277427385403e-01
5.531475521139908036e-01
6.133684704520878661e-01
5.676113597860019677e-01
4.220911215901090863e-01
2.362950451380053940e-01
9.137189468664411174e-02
4.679234076384582164e-02
1.087384303451604389e-01
2.273231118965146069e-01
3.241163210053713550e-01
3.350311310797736142e-01
2.453040036029001114e-01
9.759642816075710103e-02
-3.117646580180698235e-02
-7.172425523741710052e-02
-2.519790711662389660e-04
1.482261317763240716e-01
2.983738909648465665e-01
3.748313394063741422e-01
3.425131543976636106e-01
2.250966566067280072e-01
9.170957653725622660e-02
1.906151387350564497e-02
4.956848937283255679e-02
1.681851405307865921e-01
3.105105269143750846e-01
3.977729903012238166e-01
3.797212560772305068e-01
2.621557552311657435e-01
1.041535645050220005e-01
-1.353660861633969315e-02
-3.182836557361915647e-02
5.509727552240927667e-02
1.970166111242948603e-01
3.151942942232449640e-01
3.452741701894937454e-01
2.722638707986151374e-01
1.386404372092115977e-01
2.118251556749844999e-02
-1.090499022782316640e-02
6.614036322303155913e-02
2.173254696248794193e-01
3.673879782945476125e-01
4.410922021054592967e-01
4.035240812568470226e-01
2.785745941244195389e-01
1.356217064909705228e-01
5.165497473019948355e-02
6.939257888215288883e-02
1.741056647488250231e-01
3.017162989041594079e-01
3.737748612547038274e-01
3.403442989544522845e-01
2.075254455278974786e-01
3.467704872023646967e-02
-9.719304357758470903e-02
-1.287647762092839765e-01
-5.401354603730230963e-02
7.701215270716185723e-02
1.857195528035539833e-01
2.078604873693354893e-01
1.285144119743935609e-01
-9.807169339443422285e-03
-1.303292708004126776e-01
-1.638889003732136584e-01
-8.680283416276145247e-02
6.582162843573514943e-02
2.185765903430084145e-01
2.960540421520000409e-01
2.631461900429606926e-01
1.435348299474189515e-01
6.379630643782899235e-03
-7.155091508056345140e-02
-4.775643321090757010e-02
6.282515882989414546e-02
1.959204118070592415e-01
2.729016863864449638e-01
2.436745933725590341e-01
1.142057190802748118e-01
-5.625577808026398924e-02
-1.867862313725536516e-01
-2.181242783864484336e-01
-1.442787908070688185e-01
-1.530705182990470259e-02
9.021319321090173760e-02
1.080712840805653496e-01
2.340486935622548836e-02
-1.211978089474086973e-01
-2.488689320429544605e-01
-2.903393691520015363e-01
-2.218095953430160583e-01
-7.826380643574577800e-02
6.501667116275378078e-02
1.327507663732131749e-01
8.995535980041900748e-02
-3.956734666054619043e-02
-1.865428759743848475e-01
-2.740941263693333352e-01
-2.596182978035595501e-01
-1.579567017071721036e-01
-3.329141496270689865e-02
3.583682120928087522e-02
-5.833204224104625302e-04
-1.365056487202374602e-01
-3.126047765278984203e-01
-4.478843329544506258e-01
-4.830141142547053068e-01
-4.119385069041598402e-01
-2.846552747488307888e-01
-1.796882798821591853e-01
-1.612005327301998248e-01
-2.440135464909666818e-01
-3.855057031244091270e-01
-5.087839852568475374e-01
-5.445629691054596488e-01
-4.690364522945473791e-01
-3.171921536248780704e-01
-1.643254112230345121e-01
-8.574168677217736123e-02
-1.164583665674914087e-01
-2.327165912091957445e-01
-3.652934367986065967e-01
-4.373709761894918335e-01
-4.064131372232536732e-01
-2.873359471243053798e-01
-1.444051465224188424e-01
-5.625555142638610090e-02
-7.300479038365589868e-02
-1.887271775050123612e-01
-3.442337822311494211e-01
-4.586816810772252340e-01
-4.729112833012268924e-01
-3.810541559143888479e-01
-2.333103775307971695e-01
-1.084189693728384446e-01
-7.076803487350288857e-02
-1.354106425372473832e-01
-2.599592066067176188e-01
-3.677529283976534447e-01
-3.897324824063758131e-01
-3.023074019648551714e-01
-1.406666737763414554e-01
1.971131607115846063e-02
1.033593452374165778e-01
7.512186380181003209e-02
-4.135499116074654868e-02
-1.769337806028912774e-01
-2.548527400797725995e-01
-2.326000650053766661e-01
-1.250812698965244329e-01
3.486097654835457194e-03
7.455567323615089337e-02
3.814059231336042882e-02
-9.965902813800577020e-02
-2.794358295901045453e-01
-4.200856297859973387e-01
-4.621474314520877535e-01
-3.994152261139946036e-01
-2.817205037427489844e-01
-1.874087469489298940e-01
-1.804562864888865914e-01
-2.754935017399334218e-01
-4.297070131020204742e-01
-5.660150617325443445e-01
-6.149497690886371881e-01
-5.525315888946625842e-01
-4.135864497829397912e-01
-2.732616617305684836e-01
-2.067305482769806191e-01
-2.488964532186372924e-01
-3.759068033048431068e-01
-5.184673343607366647e-01
-5.997126678930259081e-01
-5.770837246478790483e-01
-4.654972799694279129e-01
-3.292416153210286911e-01
-2.469927985009770510e-01
-2.689243433908940495e-01
-3.891762819940459694e-01
-5.486302142648001867e-01
-6.665140281994590410e-01
-6.837354250329735761e-01
-5.944866005680251586e-01
-4.490190774862734546e-01
-3.261121950792938984e-01
-2.901817687424275705e-01
-3.562950065775372099e-01
-4.820645111092964896e-01
-5.908159031856958787e-01
-6.134631080949548565e-01
-5.263768462784614854e-01
-3.646969422012714679e-01
-2.038444467694879303e-01
-1.192234389551381085e-01
-1.459230369370409508e-01
-2.602301594272049545e-01
-3.929428719667670267e-01
-4.672403755793228530e-01
-4.405601674072525675e-01
-3.277677760999518908e-01
-1.930530090298281931e-01
-1.149472774966817934e-01
-1.434350685100847789e-01
-2.724258780768805677e-01
-4.425331224572848776e-01
-5.726834840668406645e-01
-6.034558598399502038e-01
-5.286923213991833181e-01
-3.982800751793327820e-01
-2.906278239027577648e-01
-2.697827270815809642e-01
-3.504536823342404017e-01
-4.899135058218573868e-01
-6.111742517858105295e-01
-6.448692204831147912e-01
-5.671268382387656404e-01
-4.128868852857864313e-01
-2.574152733118826308e-01
-1.760075229277590914e-01
-2.036917384877043324e-01
-3.167417841008454138e-01
-4.459905442365154071e-01
-5.146990987071462520e-01
-4.804321900675676549e-01
-3.582253437837487620e-01
-2.124776250672427980e-01
-1.219646685646343376e-01
-1.369450866135391021e-01
-2.516265960004679392e-01
-4.069385982892327336e-01
-5.221348912259311525e-01
-5.381257596413064892e-01
-4.490820030581065270e-01
-3.052099766946408388e-01
-1.852211278497959968e-01
-1.534425003020812028e-01
-2.248342241252392626e-01
-3.568866377615430574e-01
-4.727913790431650942e-01
-5.033202515871572080e-01
-4.246972260904968155e-01
-2.719140579563072979e-01
-1.202455041902072974e-01
-4.495400640682968574e-02
-8.099431900186795930e-02
-2.045286314062987332e-01
-3.462421508760523681e-01
-4.292152712156818151e-01
-4.108027633247748334e-01
-3.058052767621884382e-01
-1.783670728983352549e-01
-1.069945022852336614e-01
-1.416679541833111011e-01
-2.763133193095726470e-01
-4.515796111069499408e-01
-5.864463986625008118e-01
-6.215602160753835870e-01
-5.508423780663613822e-01
-4.242672808230643633e-01
-3.203345086646466333e-01
-3.031811736839276628e-01
-3.876005588964993032e-01
-5.309398361782629028e-01
-6.562713401687397807e-01
-6.942712898496810059e-01
-6.210913961566981722e-01
-4.716739281785434224e-01
-3.212663790229752236e-01
-2.451255500416864019e-01
-2.782214966909425380e-01
-3.967519401413619473e-01
-5.314571318129754918e-01
-6.054911429653231369e-01
-5.763000343836471862e-01
-4.587922242594209554e-01
-3.172349447405862222e-01
-2.302711968471964354e-01
-2.480300689920457158e-01
-3.645964706853841997e-01
-5.207867003442528953e-01
-6.357533948618920849e-01
-6.503190778898721991e-01
-5.585809000345451913e-01
-4.106859191876449655e-01
-2.853008401048288678e-01
-2.467230496491795710e-01
-3.098989825895593353e-01
-4.323224560215105927e-01
-5.372071430928140323e-01
-5.553668482306591825e-01
-4.630886509514308136e-01
-2.954491100136958925e-01
-1.278293029385822455e-01
-3.561854854812793181e-02
-5.391746307205819849e-02
-1.590510258684642575e-01
-2.818816659141141212e-01
-3.456786136707943879e-01
-3.079941868540498340e-01
-1.838324372843440635e-01
-3.754410263702219475e-02
5.215771386362039186e-02
3.508852437443127359e-02
-8.287586055133285001e-02
-2.425737075266971854e-01
-3.631615297575098711e-01
-3.854471009988752472e-01
-3.034937173185904280e-01
-1.673950196888678299e-01
-5.574403348480640175e-02
-3.274305894545494200e-02
-1.132206173708684427e-01
-2.545283968791891560e-01
-3.797127547061749930e-01
-4.193946937968934807e-01
-3.496435893089435698e-01
-2.052949570594029272e-01
-6.146811869734069428e-02
6.726518760271235631e-03
-3.551983946666566194e-02
-1.642321828216118385e-01
-3.099699148893119705e-01
-3.957014549013218030e-01
-3.786856271217336478e-01
-2.736451565905014260e-01
-1.446662307269282743e-01
-7.021858725260603229e-02
-1.002688172623886348e-01
-2.287528765317206614e-01
-3.963544175032241990e-01
-5.221124862387344079e-01
-5.467575741204089290e-01
-4.643183686237551955e-01
-3.248983878794685087e-01
-2.071460700901534557e-01
-1.753648627008335403e-01
-2.445293582889046524e-01
-3.721803249695639915e-01
-4.815931044257670823e-01
-5.036533609236206743e-01
-4.147256043214275212e-01
-2.499649385391465861e-01
-8.482806000187582962e-02
5.226451026566422686e-03
-1.496216835374438586e-02
-1.217678187370795084e-01
-2.460891203266638017e-01
-3.112176093901942719e-01
-2.747130594399502246e-01
-1.515716734859805515e-01
-6.121451783435871707e-03
8.296084692101957092e-02
6.553863398464847279e-02
-5.245550663859653573e-02
-2.117971611604171078e-01
-3.315772507417285575e-01
-3.525380283388664382e-01
-2.686801140690368017e-01
-1.300394560085717244e-01
-1.515770702300783118e-02
1.180718524725654639e-02
-6.393621606946046920e-02
-1.997097927773501813e-01
-3.185373998415078622e-01
-3.510251784963641652e-01
-2.732360877204974003e-01
-1.200088602154587430e-01
3.352305000352470005e-02
1.122230432235811343e-01
8.124313459484253097e-02
-3.549456001800194160e-02
-1.686165202439852406e-01
-2.411725855116827744e-01
-2.105169942527231330e-01
-9.148098084566808064e-02
5.172908434544236378e-02
1.405133689671693165e-01
1.247671898247440930e-01
1.041050631242748659e-02
-1.433882289174426838e-01
-2.558174488446086636e-01
-2.677561948319561180e-01
-1.733785631782696623e-01
-2.292805100035148758e-02
1.048146203954282429e-01
1.454237742911336506e-01
8.381518460705977835e-02
-3.764621600712710764e-02
-1.423119571735515232e-01
-1.611231829120855774e-01
-7.047695026666009332e-02
9.446363799999464572e-02
2.582592002666419528e-01
3.454935729120837129e-01
3.210724061735632517e-01
2.087103170071480107e-01
7.761659639295719060e-02
4.623489708869756021e-03
3.230680460455970238e-02
1.458136560003309434e-01
2.809635521782503087e-01
3.592284198319506405e-01
3.306188878446174595e-01
2.012108199174643119e-01
3.036567868759419697e-02
-1.008787288247351421e-01
-1.331461699671745436e-01
-6.033096834546140819e-02
6.762288084564800628e-02
1.722488572527115791e-01
1.894447585116867949e-01
1.044533572440028563e-01
-4.003572898197749197e-02
-1.670574065948299547e-01
-2.072497482235821920e-01
-1.367253430035419715e-01
9.614055215437549567e-03
1.565634227204801276e-01
2.289109164963631371e-01
1.917343558415204596e-01
6.888722277737185928e-02
-7.031574493052247798e-02
-1.489694842472524816e-01
-1.244566169770035952e-01
-1.161798499144831714e-02
1.253502660690178350e-01
2.078785303388612504e-01
1.859117277417375313e-01
6.543746016043885949e-02
-9.429210636138371515e-02
-2.123681419846395746e-01
-2.295618079210250129e-01
-1.399319172165834346e-01
6.397365485960121445e-03
1.307652974399382828e-01
1.688634303901977995e-01
1.057186003266808727e-01
-1.620266626290054607e-02
-1.201627876462422473e-01
-1.370287580265681648e-01
-4.314029799812249544e-02
1.263788775391395947e-01
2.961105553214292696e-01
3.906419699236235998e-01
3.748651484257743971e-01
2.724647339695646653e-01
1.526042562889126653e-01
9.205484470083616366e-02
1.333160370901543268e-01
2.614434988794481218e-01
4.121500766237453650e-01
5.067860161204095215e-01
4.952256912387419940e-01
3.833949525032339656e-01
2.304928295317177078e-01
1.173841182623979185e-01
1.032636482526029242e-01
1.940497297269280219e-01
3.396076185904804978e-01
4.612793941217276372e-01
4.947736119013213529e-01
4.251486628893120234e-01
2.949171308216217979e-01
1.808768624666661495e-01
1.522349342397288641e-01
2.327391796973329874e-01
3.873666300594060807e-01
5.408124443089439293e-01
6.177890377968945357e-01
5.833246947061738741e-01
4.612510668792109136e-01
3.208895753708947973e-01
2.391804569454592244e-01
2.588037814847951035e-01
3.650069316888369664e-01
4.937047073185716339e-01
5.664579439988702836e-01
5.333581917575238585e-01
4.005525705267191094e-01
2.274624085513527461e-01
9.517229562558449096e-02
6.309063313637278125e-02
1.373392986370030600e-01
2.679733122843128146e-01
3.765069918540381311e-01
3.988002536707980772e-01
3.200391849141404621e-01
1.828381428684843213e-01
6.406881507207166926e-02
3.298231954812334832e-02
1.133389039385657715e-01
2.700947430136744210e-01
4.278896969514051074e-01
5.113460562306574309e-01
4.853675910928259563e-01
3.736281980215428455e-01
2.452600685895752475e-01
1.769853586491826891e-01
2.112407981048115002e-01
3.330097471876249382e-01
4.779276160345258262e-01
5.672661628898630903e-01
5.508238778619007903e-01
4.344565523442744381e-01
2.773015466854141797e-01
1.601722459920565667e-01
1.422236258471896719e-01
2.293464827405584106e-01
3.713911132594003850e-01
4.896968703836355741e-01
5.199811429653293793e-01
4.473218258129931790e-01
3.142606001413826844e-01
1.976325886909627572e-01
1.666885490416832316e-01
2.452243270229589323e-01
3.982669651785089582e-01
5.505612861566818728e-01
6.268670188496805462e-01
5.922558511687464611e-01
4.705977221782842168e-01
3.312463528965159387e-01
2.511679506839298304e-01
2.730624176646357926e-01
3.821913158230442198e-01
5.144784080663526993e-01
5.914882220753783226e-01
5.633100246625104557e-01
4.360815921069601808e-01
2.692068123095936460e-01
1.437438971833222001e-01
1.190651952852313372e-01
2.012462528983176568e-01
3.402851267621680442e-01
4.576284483247692325e-01
4.890578462156858208e-01
4.196708068760698351e-01
2.919831564062977391e-01
1.827586600018818730e-01
1.611319204068283051e-01
2.507393611902080655e-01
4.164077359562845526e-01
5.826439550904900511e-01
6.739362345871587889e-01
6.550558930431790161e-01
5.495490817615538148e-01
4.264283271252384266e-01
3.623075083020854126e-01
3.995294998497903038e-01
5.230008796946415961e-01
6.682997010580887798e-01
7.566617256413034065e-01
7.378722072259298326e-01
6.177970482892527482e-01
4.556066880004763231e-01
3.321692386135391972e-01
3.067139555646273275e-01
3.852228520672346113e-01
5.176515757837499843e-01
6.254561610675563044e-01
6.444792827071480490e-01
5.599301102365147331e-01
4.144850811008670144e-01
2.851152434877117781e-01
2.412062289277582261e-01
3.066854053118667767e-01
4.467055482857752446e-01
5.861289122387666195e-01
6.498218254831145124e-01
6.029494157858170666e-01
4.694599528218570961e-01
3.187687853342582311e-01
2.278857050815824847e-01
2.395351939027585142e-01
3.389842071793116585e-01
4.621436333991749135e-01
5.305490118399504018e-01
4.942476650668493621e-01
3.593262244572945630e-01
1.851320450768779158e-01
5.266509351009344975e-02
2.124116249667858808e-02
9.688404302982969729e-02
2.295475610999308247e-01
3.406440254072473084e-01
3.659325645793228277e-01
2.905014069667847809e-01
1.568712904272150377e-01
4.182552893704089003e-02
1.453283495513697787e-02
9.867752176948066389e-02
2.591466002012717817e-01
4.205176762784453848e-01
5.073577890949533264e-01
4.845226861856954947e-01
3.756460141093189153e-01
2.498284075775452640e-01
1.837704117424275030e-01
2.198985600792826844e-01
3.431988434862411896e-01
4.893230995680066253e-01
5.795733330329710942e-01
5.637909031994704501e-01
4.478846692648207894e-01
2.910518889940550968e-01
1.741688133909036207e-01
1.564523585009695295e-01
2.438506623210207058e-01
3.862634189694074127e-01
5.050685186478679478e-01
5.360086308930275267e-01
4.641719503607544262e-01
3.320944643048641676e-01
2.165892362186440656e-01
1.868686922769785541e-01
2.666745047305534855e-01
4.209644957829279388e-01
5.744003108946460490e-01
6.516457100886343667e-01
6.176647307325506819e-01
4.962090531020423856e-01
3.565047537399514410e-01
2.753824994888893207e-01
2.954006859489186620e-01
4.016761397427285885e-01
5.299885811139873892e-01
6.017643654520822283e-01
5.669665087860090713e-01
4.316247295901155523e-01
2.550588821380266324e-01
1.182721146866494433e-01
8.061460076384621698e-02
1.481754073451467812e-01
2.710034288965043059e-01
3.706339380053718102e-01
3.829743620797771975e-01
2.932833516029087484e-01
1.442705011607565146e-01
1.292245919820389499e-02
-3.137829723741825116e-02
3.527264792883447186e-02
1.779846417763066291e-01
3.215557399648384385e-01
3.907673004063729194e-01
3.506788693976735649e-01
2.251129336067381748e-01
8.333970453725543515e-02
2.205880873508564433e-03
2.425683537282695770e-02
1.345668235307869998e-01
2.688432269143608000e-01
3.484104203012198253e-01
3.231004080772306719e-01
1.987841012311810929e-01
3.459664450503189409e-02
-8.866688361633948134e-02
-1.118845995736242049e-01
-2.921224647759963072e-02
1.091420581242948384e-01
2.244492422232358675e-01
2.523503031894963056e-01
1.778409227986147423e-01
4.337683920922798253e-02
-7.429461243249478597e-02
-1.060109212278235180e-01
-2.806416577698002401e-02
1.244854396248679107e-01
2.762962532945479333e-01
3.520423101054577231e-01
3.167102962568542623e-01
1.940858011244186998e-01
5.343885949098391847e-02
-2.834731326979792604e-02
-8.654857117845721204e-03
9.769760374880978593e-02
2.265573969041501379e-01
2.994193612547023098e-01
2.663137669544606290e-01
1.333346075279077114e-01
-4.013825327975774349e-02
-1.730468205775804458e-01
-2.059921152092843433e-01
-1.328433990372976103e-01
-3.518624292849902024e-03
1.035404098035537235e-01
1.242517943693343119e-01
4.387034897440206943e-02
-9.491473833944361060e-02
-2.151554778004169943e-01
-2.475274943732142796e-01
-1.682044021627601693e-01
-1.217439356425874947e-02
1.452449173430011564e-01
2.287033481520003297e-01
2.031160060429574865e-01
9.215133194742927691e-02
-3.508078735621778660e-02
-1.018970590805639564e-01
-6.591562021091321166e-02
5.777673482989424680e-02
2.047309318070645312e-01
2.961212803864411991e-01
2.816378643725584441e-01
1.670197820802674926e-01
1.128261791974649250e-02
-1.048834903725514439e-01
-1.224444723864470119e-01
-3.562422280707810973e-02
1.053228741700899113e-01
2.216449242109055362e-01
2.489842250805674451e-01
1.723615773562294506e-01
3.428054105258575984e-02
-8.844261804294785423e-02
-1.265571301520007075e-01
-5.624954734301051973e-02
8.754028756424327151e-02
2.296032591627506780e-01
2.947552633732137273e-01
2.481312778004262920e-01
1.136686263394583313e-01
-3.921037897439023229e-02
-1.334724953693313676e-01
-1.263548808035626081e-01
-3.253901270716653971e-02
8.394909003728334707e-02
1.447179992092732792e-01
9.989652657759914844e-02
-4.434014372022537787e-02
-2.285503875278696861e-01
-3.716356009544418693e-01
-4.141782482547047839e-01
-3.500508229041814356e-01
-2.291947697488458668e-01
-1.300928068821612937e-01
-1.168811447301941753e-01
-2.043676574909529808e-01
-3.499287801244038154e-01
-4.766796252568307191e-01
-5.153514411054611610e-01
-4.421620722945603377e-01
-2.921298776249072748e-01
-1.405870262230471679e-01
-6.288207177217874921e-02
-9.408236356748067575e-02
-2.104868212091910995e-01
-3.429390337986029103e-01
-4.146968101894893954e-01
-3.833087542232560541e-01
-2.637833391243099013e-01
-1.204844365224327363e-01
-3.214766342638798735e-02
-4.899025338365263493e-02
-1.651804025049971036e-01
-3.216125882311443029e-01
-4.375123380772228399e-01
-4.537694533012305298e-01
-3.645420859143932990e-01
-2.200308625308022292e-01
-9.894679037284728751e-02
-6.561979287350169776e-02
-1.350142625372438565e-01
-2.646247746067015849e-01
-3.776466203976507341e-01
-4.048550554063755080e-01
-3.224782619648679516e-01
-1.655139947763464292e-01
-9.245785928843189283e-03
7.105129923741448916e-02
4.040470180180714965e-02
-7.737223416074195947e-02
-2.129972726028961372e-01
-2.895925000797697768e-01
-2.645640500053804689e-01
-1.527736488965397710e-01
-1.843597934516037068e-02
5.986356723614966180e-02
3.205787131335619683e-02
-9.587231613799068741e-02
-2.646748025901017320e-01
-3.934321047859903331e-01
-4.228964274520877198e-01
-3.470957541139988445e-01
-2.161099887427437305e-01
-1.085405799489379819e-01
-8.862018848888700284e-02
-1.712285787399198955e-01
-3.137876501020266384e-01
-4.394302087325416828e-01
-4.788765400886375034e-01
-4.083043928946730738e-01
-2.626630407829683711e-01
-1.171874687305825974e-01
-4.710262827698345756e-02
-8.732838421863393930e-02
-2.139956883048279579e-01
-3.577637113607241570e-01
-4.416938028930208482e-01
-4.231306546478880715e-01
-3.168759679694644338e-01
-1.870883213210319251e-01
-1.123034995009808135e-01
-1.425479273908860367e-01
-2.718111969940167905e-01
-4.408242482647860006e-01
-5.686668121994421510e-01
-5.961031470329748450e-01
-5.171883835680373132e-01
-3.820446054862785545e-01
-2.693303630793031922e-01
-2.433502577424241364e-01
-3.190707395775149169e-01
-4.540150021093024568e-01
-5.714314121856873818e-01
-6.021694340949553803e-01
-5.225484922784731090e-01
-3.676702832012867517e-01
-2.129305807695102137e-01
-1.337204409551357442e-01
-1.651274659370310371e-01
-2.834477424271999446e-01
-4.194984409667544267e-01
-4.964872365793197018e-01
-4.718892634072671122e-01
-3.606170950999460501e-01
-2.269174860298402985e-01
-1.493891984966851660e-01
-1.780946385100751483e-01
-3.070313450768643593e-01
-4.769098534572587256e-01
-6.067614360668441842e-01
-6.372746838399530045e-01
-5.624033363991866041e-01
-4.321444511793478549e-01
-3.250104619027680553e-01
-3.051415910815747368e-01
-3.873245103342456419e-01
-5.288899818218403270e-01
-6.528840637858075446e-01
-6.899469304831169492e-01
-6.161846872387759522e-01
-4.664846642858152537e-01
-3.160304803118780259e-01
-2.400070209277626043e-01
-2.733059944877003211e-01
-3.920426601008299983e-01
-5.268737132365024500e-01
-6.008722007071410909e-01
-5.714097400675642868e-01
-4.533311617837641472e-01
-3.108551330672464363e-01
-2.225948075646400626e-01
-2.386711016135325825e-01
-3.531845490004402732e-01
-5.069922092892403809e-01
-6.193132502259229843e-01
-6.310625426413076777e-01
-5.364548450581192451e-01
-3.857786796946578445e-01
-2.578633328498109445e-01
-2.171853833020830904e-01
-2.788808421252266245e-01
-4.006359577615361545e-01
-5.058514920431566031e-01
-5.255146295871583328e-01
-4.360641100905180423e-01
-2.726992679562993405e-01
-1.108893091902220102e-01
-2.607304140683065763e-02
-5.335973300185738177e-02
-1.690416244062822593e-01
-3.039079198760395450e-01
-3.811162092156827885e-01
-3.580716993247776703e-01
-2.495994877621828256e-01
-1.198436398983484530e-01
-4.728749328523756956e-02
-8.186787818330409916e-02
-2.174492103095804207e-01
-3.946039631069458431e-01
-5.322230726625062358e-01
-5.708553030753874546e-01
-5.043178270663665197e-01
-3.824770178230796347e-01
-2.837229636646442787e-01
-2.720841206839276771e-01
-3.622480178965044040e-01
-5.114607751782469514e-01
-6.426998991687359331e-01
-6.865542878496839752e-01
-6.190968691566902660e-01
-4.752004321785483487e-01
-3.300526300229710275e-01
-2.588599940416885792e-01
-2.965514996909376921e-01
-4.192923651413452690e-01
-5.577981208129810797e-01
-6.352051429653219339e-01
-6.089482503836443072e-01
-4.939307972594365603e-01
-3.544211017405907160e-01
-2.690695278472015062e-01
-2.880189049920500177e-01
-4.053743116853775752e-01
-5.619788993442589309e-01
-6.770194368618852598e-01
-6.913607938898683747e-01
-5.991517310345585434e-01
-4.506009731876395863e-01
-3.244469821048320268e-01
-2.850678706491794334e-01
-3.474975385895474056e-01
-4.693207890215258526e-01
-5.738418340928045369e-01
-5.919599552306579193e-01
-5.000375209514325014e-01
-3.332107750136870106e-01
-1.668997179385957319e-01
-7.650760054812631716e-02
-9.712111907204787342e-02
-2.050221818684280217e-01
-3.310013659141105014e-01
-3.982293186707915877e-01
-3.641365918540588886e-01
-2.435871272843707080e-01
-1.007789456370351971e-01
-1.426604413639025182e-02
-3.407382962556664008e-02
-1.541737145513136786e-01
-3.152631955266804176e-01
-4.363748947574958015e-01
-4.582137079988813366e-01
-3.747646293186212008e-01
-2.360705156888735223e-01
-1.207033774848132734e-01
-9.287571694545204704e-02
-1.674579783708475822e-01
-3.018749348791726073e-01
-4.192754127061514846e-01
-4.504092417968946216e-01
-3.714970103089548781e-01
-2.175432220594183397e-01
-6.384882569736213820e-02
1.428703176026753507e-02
-1.813464946664176958e-02
-1.373250268216073544e-01
-2.740204138892995411e-01
-3.513520749013190336e-01
-3.267234321217474813e-01
-2.149803315905173817e-01
-8.030841172696047414e-02
-1.251886252609635264e-03
-2.782645926237997669e-02
-1.539923025317035954e-01
-3.204334715031952330e-01
-4.461671262387283399e-01
-4.718815071204202627e-01
-3.915450016237592146e-01
-2.551853858794858043e-01
-1.413627200901620973e-01
-1.142823167008296115e-01
-1.888137172889004234e-01
-3.223884079695286675e-01
-4.381706414257638404e-01
-4.669353389236283181e-01
-3.849385403214378720e-01
-2.272309195391773451e-01
-6.917034800187943366e-02
1.387658302656463033e-02
-1.316659735374683948e-02
-1.265978257370746485e-01
-2.572486313266684199e-01
-3.283528823901911142e-01
-2.974226614399401170e-01
-1.794167314859966833e-01
-3.863559678342942671e-02
4.626241792101649236e-02
2.515123898464409480e-02
-9.603290363857924783e-02
-2.580680401604331653e-01
-3.800531007417216056e-01
-4.027436223388662362e-01
-3.201587620690409253e-01
-1.823587020085666588e-01
-6.791606702301658527e-02
-4.102798475274620216e-02
-1.165348130694480178e-01
-2.518181887773563998e-01
-3.699727048415044628e-01
-4.016850414963652471e-01
-3.231059417205114914e-01
-1.691654592154392400e-01
-1.508749699648618409e-02
6.390638422358108084e-02
3.289327559484614416e-02
-8.426517801800710583e-02
-2.182370902439731974e-01
-2.920910385116863850e-01
-2.631739952527322735e-01
-1.462823038456622093e-01
-5.560021654560903803e-03
8.048088596716823639e-02
6.184602982475058408e-02
-5.541580568759035819e-02
-2.119933169174255672e-01
-3.269231108446128964e-01
-3.409288668319586102e-01
-2.480312941782631952e-01
-9.832771700036907481e-02
2.953526639543810339e-02
7.124964629113689218e-02
1.182839760705596543e-02
-1.062903820071214034e-01
-2.064122011735539386e-01
-2.194617679120889342e-01
-1.218509722666467621e-01
5.121015099998935116e-02
2.242032962666501983e-01
3.216025509120817860e-01
3.081751931735714489e-01
2.074720790071632459e-01
8.851776039294345644e-02
2.794430170886994663e-02
6.811818260456345420e-02
1.939746840003263584e-01
3.411255571782460527e-01
4.308452328319444247e-01
4.129625478446084519e-01
2.933918679174688515e-01
1.313570026875881813e-01
7.784321175267207293e-03
-1.803399096717750449e-02
5.995126565452536804e-02
1.917665698456641477e-01
2.989416522527092446e-01
3.173947985116855053e-01
2.324115892440071773e-01
8.674439301802965019e-02
-4.256170659481808144e-02
-8.605038922358146380e-02
-1.972839300354842229e-02
1.216169402154456958e-01
2.629008787204769049e-01
3.290353254963633289e-01
2.852229758415325556e-01
1.554409477773562032e-01
9.123924069482106103e-03
-7.670916824724560712e-02
-5.933537597700628413e-02
4.649982100852492056e-02
1.766839500690055853e-01
2.527185203388527257e-01
2.246067907417396703e-01
9.838233416047674484e-02
-6.666817536137722988e-02
-1.896116369846263527e-01
-2.112039249210304892e-01
-1.254965412166065553e-01
1.738648448595585261e-02
1.387780544399161986e-01
1.743574513901982037e-01
1.091337063267013296e-01
-1.444986126288337613e-02
-1.196843546462264818e-01
-1.374711330265716569e-01
-4.419034299815670364e-02
1.249871545391333383e-01
2.945883683214055582e-01
3.891373549236212814e-01
3.734544614257903072e-01
2.711450179695704676e-01
1.512876172889330295e-01
9.056592770083642108e-02
1.313935390901379008e-01
2.587463868794429578e-01
4.082687276237229046e-01
5.012579951204090278e-01
4.875556722387457409e-01
3.730782275032383799e-01
2.170414975317467854e-01
1.003546372623976696e-01
8.228422425259576678e-02
1.688459847269248582e-01
3.100251565904771356e-01
4.273021451217242639e-01
4.565372289013270302e-01
3.829485678893334577e-01
2.492110338216504961e-01
1.322815834666697943e-01
1.015174402397269193e-01
1.808019396973275517e-01
3.352276520593759357e-01
4.895806963089243125e-01
5.686361357968892083e-01
5.374537707061797231e-01
4.198636138792160577e-01
2.851510723708817752e-01
2.101857809454603654e-01
2.375437444847905422e-01
3.523375516888320180e-01
4.903208823185861709e-01
5.728729299988712942e-01
5.498896927575140925e-01
4.273156505267243777e-01
2.643690585513575608e-01
1.419372806255846942e-01
1.192429841363765730e-01
2.022386206369995443e-01
3.408299182843302910e-01
4.564048608540352547e-01
4.847218016707992017e-01
4.108907649141436691e-01
2.774753588684703010e-01
1.613210420720747607e-01
1.316759025481277490e-01
2.123185859385597896e-01
3.682429020136723796e-01
5.241431429514002982e-01
6.047101722306595928e-01
5.749277580928284781e-01
4.585586040215275383e-01
3.248301335895801834e-01
2.505639116491845120e-01
2.782981551048079871e-01
3.931178341876412907e-01
5.307584080345222333e-01
6.125888108898612794e-01
5.885008378619123182e-01
4.644388343442785172e-01
2.996231956854206735e-01
1.749442609920457137e-01
1.496274808471874940e-01
2.296273887405529956e-01
3.648512842593741867e-01
4.766890013836325157e-01
5.009021689653300191e-01
4.226068658129790157e-01
2.843770001413885029e-01
1.630739866909677593e-01
1.279687470416815964e-01
2.028707190229555868e-01
3.528133981785059881e-01
5.025404021566951540e-01
5.768020238496788243e-01
5.406516711687626708e-01
4.179315201783130873e-01
2.779573738965199214e-01
1.976467296839362064e-01
2.196396156646437392e-01
3.291268538230384122e-01
4.619519450663274185e-01
5.395923020753706778e-01
5.120471296625103141e-01
3.853659771069861684e-01
2.188714833095773415e-01
9.355270218332262244e-02
6.872974628523524643e-02
1.504470428982931929e-01
2.886957257621627915e-01
4.049413503247545343e-01
4.350103362156827469e-01
3.640691688760731015e-01
2.347236904062804941e-01
1.238443760018991258e-01
1.006842304068303051e-01
1.890044431901863886e-01
3.537575899563069060e-01
5.195724450904861680e-01
6.110504415871598205e-01
5.930630940431951270e-01
4.892397717615598052e-01
3.686558291252607367e-01
3.079649013020838155e-01
3.495246568497869522e-01
4.782303616946151359e-01
6.296221940580631893e-01
7.248717616412898579e-01
7.136748922259406047e-01
6.017844922892796600e-01
4.482370510004835551e-01
3.337495046135502408e-01
3.173875245646191612e-01
4.049627010671907335e-01
5.462593317837238782e-01
6.625670550675410997e-01
6.895724977071492345e-01
6.123436542365362500e-01
4.734342081008935943e-01
3.497133794877427815e-01
3.104873809277570174e-01
3.796270453118434918e-01
5.222511932857729633e-01
6.632098692387453642e-01
7.273777314831103569e-01
6.799471387858476712e-01
5.449104198218840400e-01
3.917414773342815515e-01
2.975206430815834913e-01
3.050523769027458920e-01
3.996905261792849107e-01
5.174373333991323376e-01
5.799218228399435349e-01
5.372849310668630363e-01
3.957053364572993281e-01
2.146195700769087944e-01
7.511298051010792398e-02
3.658242649666528651e-02
1.051281720298058581e-01
2.307757520999063616e-01
3.350042024072439895e-01
3.536341535793281476e-01
2.718098519667699331e-01
1.321024424272632669e-01
1.134002693705861431e-02
-2.126945504486710270e-02
5.799207576947501552e-02
2.140399942012441992e-01
3.714748712784582407e-01
4.548811240949483525e-01
4.291258141857109965e-01
3.178469331093447536e-01
1.901411905775483580e-01
1.226952317424313821e-01
1.579097950792932858e-01
2.807313914862141213e-01
4.267575915680023035e-01
5.172215040329629643e-01
5.018826711994595069e-01
3.865583562648243210e-01
2.303486919940389011e-01
1.140322023909179222e-01
9.673257150096692403e-02
1.843143133209968199e-01
3.266081929694240049e-01
4.449428166478647806e-01
4.750356288930243087e-01
4.019768363607763573e-01
2.683329303048689329e-01
1.509751002186619229e-01
1.191989002769812261e-01
1.968502497305480992e-01
3.490075567829489245e-01
5.004640948946266210e-01
5.760209330886354451e-01
5.407799467325665743e-01
4.186263941020250678e-01
2.789112307399549961e-01
1.985773674888852147e-01
2.202794769489044291e-01
3.292118857427225875e-01
4.612105071139633305e-01
5.377342964520879232e-01
5.087533617860096058e-01
3.802775955900949967e-01
2.115792191380547194e-01
8.358576268665096620e-02
5.554454376383854974e-02
1.334163293451599008e-01
2.670991048965010162e-01
3.779584300053802637e-01
4.017179150797821618e-01
3.234437556029128302e-01
1.856505021607830486e-01
6.513333119819419981e-02
3.109253376258151735e-02
1.072646039288468883e-01
2.586093337762768729e-01
4.097968909648375679e-01
4.855049734063712208e-01
4.507155473976628968e-01
3.292005656067436004e-01
1.902067665372424998e-01
1.105836378735042258e-01
1.329041033728244336e-01
2.422925925307608530e-01
3.745267069143757843e-01
4.510181603012206608e-01
4.217002190772196069e-01
2.925556192311645209e-01
1.228384705050364623e-01
-6.533408616325980800e-03
-3.631482657362108263e-02
3.945953652239577586e-02
1.706979801243132533e-01
2.787811952232448487e-01
2.994516921894971873e-01
2.177972077986368993e-01
7.635534220921015580e-02
-4.805511843249163362e-02
-8.621033122782113811e-02
-1.435062777696902159e-02
1.325065516248621345e-01
2.790539352945278218e-01
3.499919481054601378e-01
3.103258842568563658e-01
1.838521931244029017e-01
3.984403449096989708e-02
-4.481984226979895264e-02
-2.753344111785999138e-02
7.686550774882380810e-02
2.041981029041468609e-01
2.759259642547063351e-01
2.420391769544525118e-01
1.085844015279586183e-01
-6.511337427973261371e-02
-1.980589675775630276e-01
-2.309241552092865801e-01
-1.576561920373181214e-01
-2.825659529283173349e-02
7.874641980352892201e-02
9.918546136933978352e-02
1.823547697442488152e-02
-1.214835073394393977e-01
-2.430769918003983787e-01
-2.772538303732128284e-01
-2.001966521627999152e-01
-4.687559456428846971e-02
1.074381623429795790e-01
1.874688101520004258e-01
1.582315230429727215e-01
4.351670694741339301e-02
-8.742694235617742837e-02
-1.577663490805587820e-01
-1.249652112109290447e-01
-3.957402170110792261e-03
1.409538868070419892e-01
2.310771703864480942e-01
2.162212403725603527e-01
1.022251790802931742e-01
-5.181686508022612797e-02
-1.651599673725485939e-01
-1.787411763864551195e-01
-8.678336080706368361e-02
6.043059417008642131e-02
1.840897102108917660e-01
2.197466610805717813e-01
1.523034763562341465e-01
2.411861405261094687e-02
-8.815903404295763468e-02
-1.154634111520032591e-01
-3.417754434303257871e-02
1.205565905642123209e-01
2.733285201627471683e-01
3.487598523732104994e-01
3.118040218004141106e-01
1.862343343394646800e-01
4.133032202563302615e-02
-4.599362836932548160e-02
-3.306785180356541093e-02
6.535954129280904801e-02
1.852223790372981571e-01
2.481146792092814579e-01
2.041748725775998918e-01
5.961010527980171309e-02
-1.260857735278894942e-01
-2.717439699544386134e-01
-3.178612232547032290e-01
-2.582112989041667195e-01
-1.426264907488512257e-01
-4.947265888217558527e-02
-4.276428473019781851e-02
-1.371855244909492844e-01
-2.899899111244223504e-01
-4.241731292568395872e-01
-4.703527721054603372e-01
-4.046404592945804235e-01
-2.619568446248903282e-01
-1.175456402230505987e-01
-4.667664777217638006e-02
-8.434842356749373826e-02
-2.068012062091835468e-01
-3.448301737985793314e-01
-4.216551201894920275e-01
-3.947970332232583757e-01
-2.792469131242943936e-01
-1.393607165224174382e-01
-5.387479142639033103e-02
-7.301465538363971497e-02
-1.909633385050137355e-01
-3.486360182311391553e-01
-4.652845610772295415e-01
-4.818310653012278788e-01
-3.924727939143988209e-01
-2.474575825308295007e-01
-1.255531923728377131e-01
-9.115704887350062346e-02
-1.593122645372568313e-01
-2.876026536067189388e-01
-3.993210913976445453e-01
-4.253452344063772261e-01
-3.420060699648537206e-01
-1.843998927763533802e-01
-2.789972392883055541e-02
5.214391823741570953e-02
2.070221680182408874e-02
-9.844362516071569758e-02
-2.360151946028919145e-01
-3.151072150797676885e-01
-2.930662250053705509e-01
-1.846632238965239536e-01
-5.399430834518508665e-02
2.049657623614203200e-02
-1.109950768663904574e-02
-1.426336521379862887e-01
-3.146824965901169335e-01
-4.461610677859953467e-01
-4.776638414520968379e-01
-4.030762671140230569e-01
-2.723557827427499078e-01
-1.640057949489400480e-01
-1.421890764888903980e-01
-2.217465827399340839e-01
-3.600944551019993334e-01
-4.803937107325210176e-01
-5.134267470886357820e-01
-4.354662078946790471e-01
-2.815867117829274902e-01
-1.271754447305676328e-01
-4.763166127698154062e-02
-7.806593521861796003e-02
-1.948099143048446780e-01
-3.287265723607188939e-01
-4.030772028930279527e-01
-3.753960116478782805e-01
-2.606579869694498064e-01
-1.231740303210582532e-01
-4.160773450097653148e-02
-6.608646739088336330e-02
-1.906726599940591349e-01
-3.561417642647993764e-01
-4.815903181994500848e-01
-5.077731110329842812e-01
-4.287117235680641958e-01
-2.944734444862828204e-01
-1.836440180793066645e-01
-1.604406677424278505e-01
-2.397313505775293119e-01
-3.789329551092756598e-01
-5.011829661856701534e-01
-5.372185430949547591e-01
-4.632483622784788202e-01
-3.142675662012716642e-01
-1.655717897694953811e-01
-9.246015995513923169e-02
-1.299378589370148995e-01
-2.542288994271955649e-01
-3.960892389667497460e-01
-4.786764575793232002e-01
-4.594265834072566168e-01
-3.532234130999737376e-01
-2.242941470298663864e-01
-1.512258254966852844e-01
-1.840755315100716660e-01
-3.168405400768822822e-01
-4.902350364572731767e-01
-6.232970570668303623e-01
-6.567247568399627866e-01
-5.844842453991921927e-01
-4.565879271793518157e-01
-3.515668339027582245e-01
-3.335833820815776174e-01
-4.174504163342233620e-01
-5.605291948218137366e-01
-6.859008147858053350e-01
-7.242451474831153035e-01
-6.517128062387647081e-01
-5.032406162857993026e-01
-3.540665313118961932e-01
-2.794338609277624563e-01
-3.142952354876984988e-01
-4.348268491008260295e-01
-5.717429522365158334e-01
-6.481666707071442879e-01
-6.215077110675790717e-01
-5.066324677837920065e-01
-3.677606700672523266e-01
-2.834830045646401508e-01
-3.038724786135385547e-01
-4.229558690004588950e-01
-5.814919472892127184e-01
-6.985799832259094178e-01
-7.149974226413080558e-01
-6.248089430581252879e-01
-4.781457326946401132e-01
-3.536783298498012984e-01
-3.157294043020779650e-01
-3.792923061252049810e-01
-5.019279677615323676e-01
-6.069345730431550123e-01
-6.252240095871556269e-01
-5.331906390905072346e-01
-3.660229959563292557e-01
-1.992145391902403750e-01
-1.082633844068293244e-01
-1.283716380018555259e-01
-2.359549824063009726e-01
-3.619524918760533838e-01
-4.296927732156776703e-01
-3.967671813247921619e-01
-2.781956627621869349e-01
-1.383192998983541477e-01
-5.581426528523046604e-02
-8.080031018330965931e-02
-2.073099653095566985e-01
-3.760650261069180544e-01
-5.060838666625021576e-01
-5.380184940753872658e-01
-4.657636100663520851e-01
-3.392366818230616032e-01
-2.368524796646585551e-01
-2.226385526839219364e-01
-3.112575748964996891e-01
-4.599091951782429133e-01
-5.915056241687485228e-01
-6.365547358496811414e-01
-5.710359541567122665e-01
-4.297192661785779744e-01
-2.876832540229723456e-01
-2.200220650416869483e-01
-2.615519826909504797e-01
-3.883281701413635600e-01
-5.309614168129578315e-01
-6.124909239653170134e-01
-5.902636083836465541e-01
-4.791052942594405950e-01
-3.432176357405762879e-01
-2.611952858471945360e-01
-2.831362639920368407e-01
-4.031116996853535417e-01
-5.619415213442563450e-01
-6.787996308618817753e-01
-6.945476938898687003e-01
-6.033399340345446671e-01
-4.553980471876656888e-01
-3.294798201048468878e-01
-2.899879976491782085e-01
-3.519854535895425296e-01
-4.730894050215225244e-01
-5.766390830928179723e-01
-5.935709212306581328e-01
-5.002867669514547977e-01
-3.319656500136941579e-01
-1.640752239385976086e-01
-7.207285854812470194e-02
-9.110690507206031796e-02
-1.975285578684431442e-01
-3.222041949140878603e-01
-3.883842946707939392e-01
-3.535795538540613125e-01
-2.327295172843315552e-01
-9.009817163702112108e-02
-4.290056136385930752e-03
-2.536045962555255606e-02
-1.472854305513363604e-01
-3.107386855266781600e-01
-4.346992867575155683e-01
-4.597893549988743001e-01
-3.798842413186100386e-01
-2.448942166888996297e-01
-1.332410074848276171e-01
-1.089753379454503623e-01
-1.868010953708421351e-01
-3.239785008791915000e-01
-4.435002857061646209e-01
-4.759744577968943458e-01
-3.974988083089768809e-01
-2.429776300594252147e-01
-8.763685469736759437e-02
-6.727811239728924420e-03
-3.523038346665383069e-02
-1.493661378215812019e-01
-2.799113908892758018e-01
-3.500664209013178985e-01
-3.173314651217504223e-01
-1.966749535904995239e-01
-5.242800172694639382e-02
3.670026074738383381e-02
2.051370373763361510e-02
-9.513942653170161246e-02
-2.511411415031921113e-01
-3.667077532387342798e-01
-3.827223961204139768e-01
-2.933385266237851785e-01
-1.487537188795121923e-01
-2.767768909016406903e-02
5.558606299171195420e-03
-6.401338628889653715e-02
-1.938961419695468535e-01
-3.072966464257483321e-01
-3.350049629236292459e-01
-2.532660213214437683e-01
-9.709496853918461734e-02
5.820799499811466632e-02
1.373534800265672762e-01
1.053588556462699000e-01
-1.396646073704767982e-02
-1.513363813266645486e-01
-2.298601923901909538e-01
-2.069217104399426743e-01
-9.735087348597894208e-02
3.467837821654475711e-02
1.106295769210093177e-01
8.049181598464864862e-02
-4.969160563857598356e-02
-2.206005811604311861e-01
-3.512453397417280021e-01
-3.823024773388732922e-01
-3.077221970690665609e-01
-1.775058530085706632e-01
-7.017735902301894257e-02
-4.989503475274458671e-02
-1.314698790694608654e-01
-2.722629987773304006e-01
-3.953566558414887133e-01
-4.314329054963636501e-01
-3.566451797205130725e-01
-2.059332802154461017e-01
-5.453775399647509126e-02
2.229640122358192422e-02
-1.038391340513675210e-02
-1.287541040180036900e-01
-2.635266432439691275e-01
-3.378224895116852533e-01
-3.090497472527223843e-01
-1.920748998456883461e-01
-5.112041065458659828e-02
3.521707196716888921e-02
1.685531782475517548e-02
-1.002440326875845139e-01
-2.568518189174448518e-01
-3.720772358445992856e-01
-3.867023688319658481e-01
-2.947877521782691912e-01
-1.464481510003734221e-01
-2.032251160456380323e-02
1.931504729113392438e-02
-4.246305439292186179e-02
-1.631362430070958380e-01
-2.659083881735523902e-01
-2.815879919120877206e-01
-1.864610782666487887e-01
-1.560715900001798280e-02
1.555858162666285127e-01
2.517176999120815384e-01
2.376729941735722385e-01
1.371076070071676756e-01
1.913552039294793422e-02
-3.954070629112993451e-02
3.493882604548678716e-03
1.331984330002999872e-01
2.851820121782407957e-01
3.806887108319442770e-01
3.694892198446115827e-01
2.574128429174760146e-01
1.035733166876119382e-01
-1.123525782471992973e-02
-2.787143996717758587e-02
5.954924065451958071e-02
2.008795678456590239e-01
3.174719042527068824e-01
3.450689085116913080e-01
2.687876122440310822e-01
1.312239640180330735e-01
9.283210405183144054e-03
-2.769800922357993841e-02
4.417645299644998996e-02
1.900458402154160953e-01
3.347757417204548780e-01
4.032513724963656676e-01
3.606704728415351946e-01
2.310253897773596465e-01
8.378446806948505743e-02
-3.983161247249469850e-03
1.051024802297922250e-02
1.125966070085412107e-01
2.382513300689998448e-01
3.090720363388639869e-01
2.751638077417442041e-01
1.426650351604584754e-01
-2.903254236135413557e-02
-1.588930669846352339e-01
-1.875741229210306227e-01
-1.090349692165733936e-01
2.668560448594987922e-02
1.409982334399272896e-01
1.696522003902037334e-01
9.771884932672483814e-02
-3.230359426288022945e-02
-1.436583706462255527e-01
-1.672057710265704433e-01
-7.929142399814212427e-02
8.494211653910328785e-02
2.500443743213831005e-01
3.405565159236230710e-01
3.213108744257924809e-01
2.159197809695736214e-01
9.346379628891852975e-02
3.062335370084150188e-02
6.980329909012247813e-02
1.959648618794386232e-01
3.447310636237169712e-01
4.373709811204061770e-01
4.236900062387495280e-01
3.095599615032654239e-01
1.541426515317710910e-01
3.828351226240149507e-02
2.117640225259506681e-02
1.087572057269189513e-01
2.509271335904713074e-01
3.690821481217103628e-01
3.990020169013320794e-01
3.258329778893376827e-01
1.921911558216551075e-01
7.499228946667116369e-02
4.357379823972445249e-02
1.218235096973093456e-01
2.748642060593463610e-01
4.275377003089187999e-01
5.046984567968908486e-01
4.715063007061822686e-01
3.519077888792208064e-01
2.153166343709033148e-01
1.387375359454653678e-01
1.648832734847883175e-01
2.789998226888280586e-01
4.169657173185804533e-01
5.002713989988680776e-01
4.789058377575283187e-01
3.588842445267526049e-01
1.994702055513598582e-01
8.156864062558817630e-02
6.439044813637653797e-02
1.538464036369937560e-01
2.997711632843023111e-01
4.234539058540205403e-01
4.605291976708003610e-01
3.959621409141486637e-01
2.721550428684738065e-01
1.657810260720760098e-01
1.459104025481241518e-01
2.361442419385412772e-01
4.013043760136651983e-01
5.659236359513943881e-01
6.545463642306611485e-01
6.320285740928331952e-01
5.220269740215535137e-01
3.936865995896015047e-01
3.237710026491853466e-01
3.547846501048053658e-01
4.718022681876368751e-01
6.105712020345163138e-01
6.924924478898581981e-01
6.675077568619163237e-01
5.416268683442845289e-01
3.741484326854229159e-01
2.460511379920494734e-01
2.166560528471874192e-01
2.920179507405496477e-01
4.221465762593683002e-01
5.285342583836304398e-01
5.470433309653310872e-01
4.628873668129834251e-01
3.187334001413922868e-01
1.915305696909696542e-01
1.506311570416796475e-01
2.199186330229540298e-01
3.644923401784991857e-01
5.091529311566542759e-01
5.786986478496820574e-01
5.382217561687672180e-01
4.115944891783174242e-01
2.681543998965611464e-01
1.848329046839274348e-01
2.042765136646415569e-01
3.116754298230345332e-01
4.428657080663259693e-01
5.193105290753767811e-01
4.909878576625141822e-01
3.639186031069929772e-01
1.973887473096275214e-01
7.234182018332202535e-02
4.804251528522124337e-02
1.304691588982900274e-01
2.695360187621148595e-01
3.866219453247756732e-01
4.174588412156836625e-01
3.471140408760778340e-01
2.180938904063288997e-01
1.071741360018757944e-01
8.352326140682819755e-02
1.708334241901845463e-01
3.340084049562487278e-01
4.976523490904859459e-01
5.863691115871583204e-01
5.650614990431996887e-01
4.574197017616046801e-01
3.326087911252305074e-01
2.673989543020847126e-01
3.042877508497843775e-01
4.283289386946108612e-01
5.752342140580989360e-01
6.663537176412989149e-01
6.515627472259443165e-01
5.367887912892861380e-01
3.812324630004874093e-01
2.657589686135514717e-01
2.495611815646157639e-01
3.385521010671874720e-01
4.825876037837607546e-01
6.029958350675632683e-01
6.354665827071499518e-01
5.650345172365409674e-01
4.341835791008542000e-01
3.196780554877178826e-01
2.906863699277586477e-01
3.709122193118380428e-01
5.252827182857182642e-01
6.784374952387460800e-01
7.550287254831085093e-01
7.200212477858525251e-01
5.971819248219354392e-01
4.557680333342477019e-01
3.726583410815848540e-01
3.904761029027445374e-01
4.944183971792849297e-01
6.203579943991636148e-01
6.898235078399435061e-01
6.528851360668673776e-01
5.156801274573504790e-01
3.376316410769099052e-01
1.998376845101084154e-01
1.617312644966623914e-01
2.294695200297659499e-01
3.531527850999416351e-01
4.543499784072421166e-01
4.689838665793289452e-01
3.823103139668105888e-01
2.370187904272242352e-01
1.100597009370608004e-01
7.076464495513463959e-02
1.429742187694321709e-01
2.917228622012415507e-01
4.417247012784232818e-01
5.176704930949462824e-01
4.845250691857403980e-01
3.660147071093092230e-01
2.313144065775520897e-01
1.571789277424326392e-01
1.860670230792658975e-01
3.029733374862534911e-01
4.435339675679964011e-01
5.290111280329629073e-01
5.091841271994849150e-01
3.898806412648244679e-01
2.302018329940880847e-01
1.109178093909184426e-01
9.113435050095215761e-02
1.766884233210312405e-01
3.173732719694182247e-01
4.344693946478631608e-01
4.636348498930333850e-01
3.898888803607455378e-01
2.557162173048734832e-01
1.378975682186643070e-01
1.056323032769777154e-01
1.826679887305449335e-01
3.339863767828964991e-01
4.842898988946250372e-01
5.582988120886289707e-01
5.210484917325449716e-01
3.963762511020317847e-01
2.536076527399591662e-01
1.696860704888977223e-01
1.872945699489230176e-01
2.916843257427188529e-01
4.187756771139578005e-01
4.901376964520778312e-01
4.558735477860075824e-01
3.221455045901407410e-01
1.483930601380620828e-01
1.572089168667625825e-02
-1.644211523615624060e-02
5.804505234515690976e-02
1.892533348964953455e-01
2.987078620053567057e-01
3.222723290797736007e-01
2.451276396029182236e-01
1.098722511607877345e-01
-6.650052801777661671e-03
-3.522871123741440347e-02
4.784334792880816367e-02
2.074570677762733184e-01
3.681760209647985671e-01
4.545364624063766290e-01
4.313480543976668802e-01
3.221846746067462686e-01
1.960752495372798943e-01
1.296383178735065200e-01
1.652095753728201610e-01
2.876767875307567057e-01
4.325879659143312406e-01
5.211382263012173111e-01
5.030623820772454069e-01
3.841671852312087410e-01
2.235566775050873145e-01
1.020270213836505235e-01
7.873176842637724659e-02
1.595753225223924265e-01
2.944355771242628261e-01
4.046922252232449391e-01
4.261143511894973646e-01
3.438413537986410584e-01
2.004844342092567122e-01
7.295431656751320826e-02
3.058143477217759032e-02
9.724324722299250434e-02
2.380481036248111582e-01
3.778195122945626760e-01
4.413908891054576511e-01
3.939002512568616776e-01
2.592743591244486834e-01
1.069123694909728250e-01
1.381296873020393390e-02
2.269449888213616318e-02
1.188226987487807640e-01
2.381121359041369345e-01
3.021068672546938227e-01
2.608676039544734482e-01
1.204994035279609299e-01
-5.962664027977260250e-02
-1.984813315775899867e-01
-2.367140572092895634e-01
-1.682605560373210962e-01
-4.312090329284037210e-02
6.016870880354695250e-02
7.742385236934010151e-02
-6.206495025569795654e-03
-1.481372143394353580e-01
-2.715176198003946828e-01
-3.071093433732140499e-01
-2.311569201628052572e-01
-7.870162656424313508e-02
7.490532334301386319e-02
1.543002231519971235e-01
1.244044420429775699e-01
8.911669947457942498e-03
-1.230250323562089854e-01
-1.946624680805592034e-01
-1.635433942109291994e-01
-4.466488117015762066e-02
9.762712680703214407e-02
1.846226203864350934e-01
1.661388193725835960e-01
4.805167908034072011e-02
-1.104792850802665261e-01
-2.286167213725464609e-01
-2.471809613864576760e-01
-1.602577458071047511e-01
-1.797709282991917512e-02
1.010134502108886168e-01
1.324350590805725703e-01
6.135757035627269901e-02
-6.969947094738151994e-02
-1.839388620429260324e-01
-2.121645911520038674e-01
-1.306527873430737285e-01
2.553457256425754884e-02
1.810369541627455114e-01
2.604934503732089235e-01
2.288410938004458439e-01
1.098026113394673930e-01
-2.742635097436255803e-02
-1.060466233693246330e-01
-8.353201480358839193e-02
2.520176829280053321e-02
1.559017730372545540e-01
2.299615002092658678e-01
1.973109325776260803e-01
6.394690927975583972e-02
-1.108428865278798942e-01
-2.460861329544373755e-01
-2.824614502547072581e-01
-2.139057429041735514e-01
-9.039248274885856860e-02
9.595576117822302020e-03
2.195287026981449646e-02
-6.806916549094305102e-02
-2.177617141243729237e-01
-3.501320232568085888e-01
-3.957845501054620407e-01
-3.307950202945513229e-01
-1.900277506248932435e-01
-4.865219622305221037e-02
1.815132422781645660e-02
-2.451383456748569556e-02
-1.527764042091816488e-01
-2.973131477985765936e-01
-3.812209911894813841e-01
-3.618958302232616608e-01
-2.542034161243426071e-01
-1.223763735224646654e-01
-4.503176642640001337e-02
-7.228196238366083048e-02
-1.982048245050130331e-01
-3.636198762311306787e-01
-4.876939950772083421e-01
-5.112756473012272096e-01
-4.284999999144041838e-01
-2.895640485308334511e-01
-1.731953823728643593e-01
-1.437611348734995631e-01
-2.162832265372137686e-01
-3.483327446066698529e-01
-4.631979523976180180e-01
-4.917598884063706377e-01
-4.103610129648583849e-01
-2.541174377763564807e-01
-9.843078692886891856e-02
-1.868968976258240933e-02
-4.997154819817105353e-02
-1.685552081607115116e-01
-3.052345206028515556e-01
-3.831887890797688323e-01
-3.598605420053971327e-01
-2.501260588965707465e-01
-1.181926293452268822e-01
-4.261697776384845704e-02
-7.341758468663858728e-02
-2.045466881379815194e-01
-3.766682235900639109e-01
-5.087651417860014069e-01
-5.414753664520933762e-01
-4.686989991140279588e-01
-3.403760767427948530e-01
-2.349586889489447827e-01
-2.165243704888789034e-01
-2.997970497398940171e-01
-4.420480601019505240e-01
-5.662712087325475485e-01
-6.030655380886352779e-01
-5.285110618946844419e-01
-3.774878467829780315e-01
-2.251942567305730281e-01
-1.468539422769838121e-01
-1.774218712186131919e-01
-2.930998603047977324e-01
-4.246516553607518341e-01
-4.952737148930182465e-01
-4.624723326479051044e-01
-3.412326249694975777e-01
-1.959134473210243921e-01
-1.052628545009766103e-01
-1.195269613908832296e-01
-2.329182839940103777e-01
-3.863900262647957384e-01
-4.992397481994499953e-01
-5.124413570329832135e-01
-4.202477405680655753e-01
-2.729631774862452120e-01
-1.494091880793086691e-01
-1.140305657424205421e-01
-1.819079215774878910e-01
-3.106499091093137266e-01
-4.235598511856921711e-01
-4.515108910949519605e-01
-3.708151422784845552e-01
-2.165373212012703108e-01
-6.400867176950164605e-02
1.146909504485875420e-02
-2.508059293701019044e-02
-1.498245774272349840e-01
-2.934362149667452124e-01
-3.789683845793134220e-01
-3.637337014072832275e-01
-2.624774261000181186e-01
-1.392769930298361492e-01
-7.256261149668513655e-02
-1.122316385100698422e-01
-2.521226540768332081e-01
-4.327957294572720159e-01
-5.731423870668298504e-01
-6.137242758399575893e-01
-5.483828213992321121e-01
-4.270189431793613988e-01
-3.280663889027827795e-01
-3.156051490815701133e-01
-4.043808503341808636e-01
-5.517029398218542546e-01
-6.806161627857987284e-01
-7.217792864831151789e-01
-6.513364692388055044e-01
-5.042318792857986010e-01
-3.557235933119066162e-01
-2.810866979277643063e-01
-3.153161184876666634e-01
-4.346397851008197977e-01
-5.698321782364756949e-01
-6.440844597071347932e-01
-6.148817130676054177e-01
-4.971726787837530415e-01
-3.552659140672581040e-01
-2.678468485646402497e-01
-2.850884666135175549e-01
-4.011215660004575634e-01
-5.568110222892063144e-01
-6.713615652259111721e-01
-6.856521826413189968e-01
-5.938414190580896257e-01
-4.461425866946902019e-01
-3.212924768498302552e-01
-2.836602393020690727e-01
-3.482625801252339226e-01
-4.726580037615304986e-01
-5.801145180431486192e-01
-6.014849085871624146e-01
-5.130753670905074948e-01
-3.499582819563339386e-01
-1.874854331902487403e-01
-1.009915474068389524e-01
-1.254987440018769940e-01
-2.372322974062511802e-01
-3.669374268760130509e-01
-4.377529512156687064e-01
-4.070921263247708199e-01
-2.898158097621930107e-01
-1.501316618983598861e-01
-6.661379828524068014e-02
-8.931568618331299503e-02
-2.122423623095459344e-01
-3.761285111069112563e-01
-5.000459326624756562e-01
-5.247393690753794360e-01
-4.442329660663950075e-01
-3.086064328231112319e-01
-1.964645346646846924e-01
-1.720465226839311967e-01
-2.502416108964946595e-01
-3.884834601782367058e-01
-5.099184291687174353e-01
-5.452818708496772748e-01
-4.707680141567177068e-01
-3.213437551785824908e-01
-1.722620720230176872e-01
-9.876502104168380369e-02
-1.357872636909156217e-01
-2.594708831413152783e-01
-4.004814118129180756e-01
-4.818809489653240741e-01
-4.610086473836488286e-01
-3.526537562594465602e-01
-2.209549897406203056e-01
-1.444206458471978816e-01
-1.730422669920360090e-01
-3.007678656853430832e-01
-4.682811563442048630e-01
-5.946102388619041168e-01
-6.204647878898672531e-01
-5.398440800345880586e-01
-4.028149791877182473e-01
-2.879834341048221336e-01
-2.596059856491775841e-01
-3.326072145895380139e-01
-4.644759710214797499e-01
-5.784348530928057341e-01
-6.053169052306567322e-01
-5.214348689514625157e-01
-3.618935000137477043e-01
-2.021010579385687234e-01
-1.174699425481269266e-01
-1.431171220720280635e-01
-2.553751088683963166e-01
-3.851035419141183302e-01
-4.555575616707936981e-01
-4.242635708540632988e-01
-3.061878492843807531e-01
-1.656319786370294977e-01
-8.124950513638573568e-02
-1.031565566255527727e-01
-2.254023905512788362e-01
-3.887463645267167922e-01
-5.122648677575164511e-01
-5.366873129988881663e-01
-4.560035993186499215e-01
-3.202421066888619938e-01
-2.079417094848088343e-01
-1.832642489454494039e-01
-2.610134443708352903e-01
-3.985328418791882488e-01
-5.188770307061578713e-01
-5.526899127968928349e-01
-4.760755723089804547e-01
-3.239125590593813775e-01
-1.713680376973367725e-01
-9.360201223973207973e-02
-1.254724624666214705e-01
-2.430520898216204095e-01
-3.769465978893088431e-01
-4.501705399013159470e-01
-4.200310321217534115e-01
-3.013042555905484088e-01
-1.581380717269535996e-01
-6.907464425261627960e-02
-8.416548926236627759e-02
-1.974449335316454390e-01
-3.497086155032318455e-01
-4.601206022387138717e-01
-4.695481361204281723e-01
-3.721663706238285130e-01
-2.182324108794716777e-01
-8.655250509016670923e-02
-4.158911370082824660e-02
-9.847402628886024745e-02
-2.149005189695371298e-01
-3.142891114257438945e-01
-3.276607179236350476e-01
-2.315023043214879117e-01
-6.107554053913531733e-02
1.080753429981088781e-01
2.004263010265603384e-01
1.807759156462991901e-01
7.273642826291459862e-02
-5.457698732666126096e-02
-1.244148653901889362e-01
-9.427035143997108957e-02
2.095035351401536294e-02
1.570302422165383849e-01
2.354221539210094027e-01
2.061351889846705920e-01
7.526093036138806203e-02
-9.780698116042410573e-02
-2.319834107417084179e-01
-2.678314353388845381e-01
-1.991733890690311759e-01
-7.587210500857777262e-02
2.369412997697876999e-02
3.551646424726510182e-02
-5.506569106945478215e-02
-2.052646507773262519e-01
-3.380177908414839227e-01
-3.838682274963728380e-01
-3.188382097204842114e-01
-1.777456682154490708e-01
-3.571993899651372539e-02
3.209345922357601660e-02
-9.171651405159748915e-03
-1.356168530179996112e-01
-2.778940522439639627e-01
-3.590766155116772440e-01
-3.365373222527252017e-01
-2.251187518456941317e-01
-8.903013265459172598e-02
-6.865080032843418056e-03
-2.871288617526793208e-02
-1.486292406875779348e-01
-3.074127889173958184e-01
-4.242111378445766467e-01
-4.398554728319530871e-01
-3.484662361782735474e-01
-2.002291500003782754e-01
-7.386519960459275724e-02
-3.374089770886500028e-02
-9.488469439291571939e-02
-2.148822460070920481e-01
-3.170449791735236444e-01
-3.322858269120857466e-01
-2.369876262666526789e-01
-6.631468500002130062e-02
1.042764802665802348e-01
1.993373299120894671e-01
1.837276911735767071e-01
8.110560500717141352e-02
-3.938371160701647361e-02
-1.009764102911244327e-01
-6.116691139545395173e-02
6.512164500029282710e-02
2.136398831781961272e-01
3.057931308319555841e-01
2.915277868446116694e-01
1.768570029174823255e-01
2.107930968766469348e-02
-9.483298382474164567e-02
-1.115742209671776036e-01
-2.311661534548441199e-02
1.205088758456103748e-01
2.407387202527026260e-01
2.733636775116937701e-01
2.035103712440343993e-01
7.374470001808178243e-02
-3.909747659483847615e-02
-6.578656022358714273e-02
1.743190099644450000e-02
1.755247972153642644e-01
3.331593297204864523e-01
4.150013464963618337e-01
3.860138378415400862e-01
2.699452277774086473e-01
1.360175360694924618e-01
6.105823375275171161e-02
8.762499702297689430e-02
2.008375770084944167e-01
3.364825710690341753e-01
4.159964423388639032e-01
3.893539077417444982e-01
2.625957331605113243e-01
9.504969263860731099e-02
-3.227859898463501798e-02
-6.004398392103095505e-02
1.782839078338463445e-02
1.513627294859442030e-01
2.620583794399247712e-01
2.857754293902035059e-01
2.077142743267294533e-01
7.051650073708334854e-02
-4.890736064624587320e-02
-8.125717202657445348e-02
-2.715044998181124353e-03
1.517397435391525939e-01
3.068166933214155345e-01
3.872109359236207693e-01
3.579004164257970078e-01
2.426328299695806601e-01
1.106123792889279617e-01
3.863025270084229773e-02
6.918822209011986357e-02
1.873298318794761330e-01
3.287451846237558484e-01
4.147548581204060225e-01
3.952001322387486693e-01
2.759735025033181466e-01
1.162431035317318950e-01
-3.152384737598365461e-03
-2.303755074740501674e-02
6.249459972687723686e-02
2.033069215904644012e-01
3.207482591217085677e-01
3.505429559013322760e-01
2.777738208893790750e-01
1.449857768216149811e-01
2.901567146667744651e-02
-8.856317602790458876e-04
7.907576369726759813e-02
2.339222430593938251e-01
3.883904733089114103e-01
4.672275887968889707e-01
4.354872387062141414e-01
3.170150168792270629e-01
1.811333453709063346e-01
1.047697229454666035e-01
1.305778954847650053e-01
2.437666636888623228e-01
3.802024133185798460e-01
4.613909169988681391e-01
4.373655467575530698e-01
3.142156145267112066e-01
1.513078745513664614e-01
2.967734962558896128e-02
8.688363136364785078e-03
9.442366763698872845e-02
2.369028412842964504e-01
3.576065608540176521e-01
3.923603306708087768e-01
3.263119759141161480e-01
2.020306808684765310e-01
9.633368007208190087e-02
7.840693554811334343e-02
1.719342899385749024e-01
3.417843260136601002e-01
5.124985759513904782e-01
6.085909242306498657e-01
5.948474840928406060e-01
4.948162560215592087e-01
3.774966325896060293e-01
3.194728996491917883e-01
3.630415341048270905e-01
4.930468431876326996e-01
6.449905480345153874e-01
7.400205028898449999e-01
7.278255488618933233e-01
6.141703173442911723e-01
4.581232746854294602e-01
3.404542149920712357e-01
3.203018688471857001e-01
4.035691717405438528e-01
5.401471592593624083e-01
6.514440123836038321e-01
6.732727659653234831e-01
5.908317598129858572e-01
4.468051841413972491e-01
3.181893316909716329e-01
2.744107530416833307e-01
3.394510860229486005e-01
4.785282591784978945e-01
6.165781961566487723e-01
6.785472558496802309e-01
6.296848071687742854e-01
4.940251861783197529e-01
3.410689728965660694e-01
2.479078086839287265e-01
2.573425936646412948e-01
3.547097768230288439e-01
4.759816530663255607e-01
5.427460900753785511e-01
5.050929996625130869e-01
3.691416401069997355e-01
1.942622333096342691e-01
6.146815418332338826e-02
3.007957528522052504e-02
1.061162298982842866e-01
2.395202757621093803e-01
3.516856903247732036e-01
3.783477332156846562e-01
3.045664388760801478e-01
1.728312534063321804e-01
5.989223700188121835e-02
3.488388240682602920e-02
1.214561581901775766e-01
2.844623019562469990e-01
4.484473490904802295e-01
5.379474305871561057e-01
5.177890600432024648e-01
4.115776757616104176e-01
2.883855761252350214e-01
2.248832833020835698e-01
2.634638228497837575e-01
3.890744246946048479e-01
5.373217370580954944e-01
6.294561836412968514e-01
6.152628532259458716e-01
5.005930042892925425e-01
3.445896530004886049e-01
2.280835356135528513e-01
2.102601095646189078e-01
2.970548370671816096e-01
4.383772267837542924e-01
5.556397240675603477e-01
5.846447847071510884e-01
5.105644192365433875e-01
3.760398281008600074e-01
2.580068894877227126e-01
2.258137069277532660e-01
3.033451383118375144e-01
4.557040952857644434e-01
6.076938072387366718e-01
6.841112334831116470e-01
6.500411547858556682e-01
5.293404548218476613e-01
3.913225573342526409e-01
3.128858320815875449e-01
3.366353279027397560e-01
4.477123721793154210e-01
5.818979693991630509e-01
6.605955408399386553e-01
6.337204060668677474e-01
5.072301304573071379e-01
3.403492980769143306e-01
2.139650175101074636e-01
1.872938554966657176e-01
2.662775960297613653e-01
4.008085760999351987e-01
5.122608384072392385e-01
5.363803715793301619e-01
4.582682189668131345e-01
3.204836794272305500e-01
1.998732849370655762e-01
1.656917569551291658e-01
2.417297287694311625e-01
3.929979582012383954e-01
5.442120912784138564e-01
6.200880860949462559e-01
5.856377371857465208e-01
4.646538391093110176e-01
3.263950765775566754e-01
2.477145477424350095e-01
2.711813330792626209e-01
3.819095944862475056e-01
5.156612175679934351e-01
5.938275680329613282e-01
5.663178331994850323e-01
4.390880562648348806e-01
2.713643919940890159e-01
1.440369003909185985e-01
1.163246275009552771e-01
1.941694823210241283e-01
3.274597819693693124e-01
4.375599996478600207e-01
4.602002768930429921e-01
3.804596723607843178e-01
2.408703583048797114e-01
1.182483692186981489e-01
8.181697427697277869e-02
1.553371907305427513e-01
3.037947557829391299e-01
4.518873278946158312e-01
5.243217760886348389e-01
4.861109707325485529e-01
3.610596321020790311e-01
2.184495207399659855e-01
1.351680994889051801e-01
1.538301699488958396e-01
2.596069337427132084e-01
3.883283971139194213e-01
4.614645594520748184e-01
4.290126067860082215e-01
2.970242255901112682e-01
1.248267661380632748e-01
-6.585034313342619239e-03
-3.788566023615281414e-02
3.697402934511287431e-02
1.679898928964885518e-01
2.766339890053294281e-01
2.987436200797841668e-01
2.195038176029201205e-01
8.155042916083911353e-02
-3.820096480177284648e-02
-7.043455723742002295e-02
8.692270928840020727e-03
1.642312347762708846e-01
3.209254379648215361e-01
4.035020854063790519e-01
3.769653093977018976e-01
2.650787646067508940e-01
1.370483955373197893e-01
6.964963387351727486e-02
1.053485743728187207e-01
2.291316705307047674e-01
3.766100369143323690e-01
4.690038973012160550e-01
4.560343400772241540e-01
3.434561902312172621e-01
1.902852015050495449e-01
7.719577438365243793e-02
6.318989742636463292e-02
1.539948375223881560e-01
2.992904751242143058e-01
4.202428822232162076e-01
4.523977421894974649e-01
3.806675397986809539e-01
2.474395752092634626e-01
1.294102125675176962e-01
9.571131177217509500e-02
1.700432032229907131e-01
3.173633226248540606e-01
4.623741682945540221e-01
5.298204631054557190e-01
4.847848712568655349e-01
3.511717651245014893e-01
1.983893914909424794e-01
1.034747677302032265e-01
1.092110748821106675e-01
2.009522997487770690e-01
3.147212369041346713e-01
3.721865132547030330e-01
3.235459259544759547e-01
1.750501735279275661e-01
-1.377938527977156692e-02
-1.617623585775682105e-01
-2.093993372092842753e-01
-1.504825810373681683e-01
-3.487631729280005199e-02
5.900992080354549446e-02
6.710830936935116564e-02
-2.532618902556835888e-02
-1.756136943394282501e-01
-3.068207158004181978e-01
-3.496387333732197122e-01
-2.802553041627738328e-01
-1.336681245642462323e-01
1.480194934297099363e-02
8.980891415199927785e-02
5.628003804301053015e-02
-6.209599705262228153e-02
-1.961812813562029967e-01
-2.692573050805486812e-01
-2.389005262109339389e-01
-1.201504311701239863e-01
2.259585980707302239e-02
1.105679953864298626e-01
9.351310237256248159e-02
-2.277314491973671598e-02
-1.792215610802196657e-01
-2.950941383725482758e-01
-3.113175773864705898e-01
-2.220880868071088143e-01
-7.764647582992337260e-02
4.325293321085948300e-02
7.623311608057498079e-02
6.278882356312992519e-03
-1.241576269474215233e-01
-2.383249180429221070e-01
-2.670475351520058549e-01
-1.865944573430757258e-01
-3.199120843579102147e-02
1.214680461627360847e-01
1.985182003732073319e-01
1.642197478004513433e-01
4.244336133947454459e-02
-9.744738797432184185e-02
-1.784710693693226380e-01
-1.579115578036142387e-01
-5.049440770716253496e-02
7.971013403725239754e-02
1.542634442092787883e-01
1.232416975776285534e-01
-7.239879720192963705e-03
-1.778081515278789049e-01
-3.074420409544154631e-01
-3.368103262547121335e-01
-2.598796989041809447e-01
-1.266923927489029544e-01
-1.583698988217883963e-02
8.440999269822786755e-03
-6.877742549097874691e-02
-2.049801251243653089e-01
-3.233923382568336669e-01
-3.548521671054681303e-01
-2.756783482945854846e-01
-1.209808486248957760e-01
3.382943577690514236e-02
1.133416002278181262e-01
8.244542243251301583e-02
-3.517888420912976266e-02
-1.703719967985710682e-01
-2.463641961894733612e-01
-2.206520682232416264e-01
-1.081685521243470893e-01
2.681989447757593403e-02
1.056946505735949782e-01
7.837211061635689091e-02
-4.916910450500069918e-02
-2.176672352310877745e-01
-3.461862410772101328e-01
-3.754535333012286591e-01
-2.994687909144479465e-01
-1.682827185308379270e-01
-6.046928237289014851e-02
-4.023792587350540767e-02
-1.224518855372130621e-01
-2.645254696067103062e-01
-3.895947793976119455e-01
-4.283957774063779089e-01
-3.571350989648609531e-01
-2.108041107764043187e-01
-6.469223692887786370e-02
5.910548237419002704e-03
-3.398853219814297610e-02
-1.605977851607056084e-01
-3.046543046028103996e-01
-3.892938800797758336e-01
-3.719281100053991040e-01
-2.674143148965334449e-01
-1.399521433452260155e-01
-6.810117676386402696e-02
-1.018922386866397134e-01
-2.352986251379302063e-01
-4.090138685900590043e-01
-5.420596037859990446e-01
-5.751225244520842272e-01
-5.021626171140315398e-01
-3.731916037428389954e-01
-2.667451529489252016e-01
-2.469953954888794712e-01
-3.287698257399266355e-01
-4.694494071019426062e-01
-5.921402987325148359e-01
-6.275529830886393823e-01
-5.518740088947181599e-01
-4.000806997829818856e-01
-2.474549367305753089e-01
-1.692859592769790367e-01
-2.005727032186139791e-01
-3.175362353047462838e-01
-4.509326153607466914e-01
-5.239226408930182100e-01
-4.939489996478830247e-01
-3.759061329695023712e-01
-2.340369923210662284e-01
-1.469514965009813268e-01
-1.647395733908621485e-01
-2.814446119940015589e-01
-4.378436052647949883e-01
-5.530571401994599512e-01
-5.678879460329846474e-01
-4.764300735681133436e-01
-3.288476634862497749e-01
-2.038467380793099748e-01
-1.657864497424262062e-01
-2.296958375774875716e-01
-3.531690351092608426e-01
-4.595336091856859206e-01
-4.797260350949619223e-01
-3.901596922784876242e-01
-2.260359042012724251e-01
-6.285402576946941267e-02
2.388967504485957349e-02
-9.962529369818423630e-04
-1.139069814272286318e-01
-2.457504489667403091e-01
-3.198131905793210050e-01
-2.936337364072869049e-01
-1.821692520999864673e-01
-4.968946302983572733e-02
2.520755650329646602e-02
-7.515158510070764353e-03
-1.418049530768745736e-01
-3.182985594573097821e-01
-4.559320460668238595e-01
-4.952804708399765610e-01
-4.301693283991657735e-01
-3.104566021793655484e-01
-2.145087929027632290e-01
-2.063172230815667474e-01
-3.005205043342132343e-01
-4.543059558218496274e-01
-5.905844467857664926e-01
-6.398725044831189424e-01
-5.781669992388417390e-01
-4.402628812857572460e-01
-3.012699933119071249e-01
-2.363188749277647660e-01
-2.802660354876683191e-01
-4.092093421008140552e-01
-5.538034922365075996e-01
-6.371316587071340631e-01
-6.165838940675839597e-01
-5.070276987837594174e-01
-3.727046240672994837e-01
-2.922473125646425918e-01
-3.157897826134968833e-01
-4.374370170004907576e-01
-5.980404412892053045e-01
-7.168028512258826090e-01
-7.346119206413243008e-01
-6.456446770581373285e-01
-5.001419406946467916e-01
-3.768763588498316164e-01
-3.402607523020786950e-01
-4.053629141252338419e-01
-5.297995617614774666e-01
-6.369039130431457529e-01
-6.576010145871726831e-01
-5.682764080904746384e-01
-4.040886039563356680e-01
-2.404812811902850289e-01
-1.528849464068386677e-01
-1.764185090018483004e-01
-2.874012644062908794e-01
-4.166651978760088082e-01
-4.874236572156764313e-01
-4.571469163247739442e-01
-3.407302167622425770e-01
-2.023886228983600433e-01
-1.206736412852586621e-01
-1.455847811833330396e-01
-2.710421803095419135e-01
-4.376667981068675384e-01
-5.643916226624694499e-01
-5.918028340753949124e-01
-5.137529550663589850e-01
-3.801445728231154231e-01
-2.694077186646613442e-01
-2.456171196839279092e-01
-3.235150208964573948e-01
-4.604120801782323746e-01
-5.793607271686815885e-01
-6.110350548496779055e-01
-5.316027461567209844e-01
-3.760395421786371650e-01
-2.196423650230178160e-01
-1.377312530416864023e-01
-1.653509786909466428e-01
-2.787830981413081943e-01
-4.088583318129494493e-01
-4.788251579653239332e-01
-4.462250363836764988e-01
-3.260596912594524444e-01
-1.826844587406606379e-01
-9.482230584718658040e-02
-1.126715499920365737e-01
-2.303735346853837407e-01
-3.887868513442012119e-01
-5.070918158618759053e-01
-5.261245308898722106e-01
-4.399829270345922416e-01
-2.988036941876751618e-01
-1.812335321048273995e-01
-1.515411386491702095e-01
-2.246358685895340768e-01
-3.579657790214267332e-01
-4.746894190928323543e-01
-5.055551652306606858e-01
-4.267733979514294340e-01
-2.733320020137607331e-01
-1.205111809386054111e-01
-4.358744354812409127e-02
-7.753732607202792892e-02
-1.985514698684365253e-01
-3.373490959141146606e-01
-4.170489876707838550e-01
-3.950476288540669678e-01
-2.861898502844309466e-01
-1.546658516369904812e-01
-7.902900113638929025e-02
-1.093072396255713452e-01
-2.394741405512768595e-01
-4.102260885266727497e-01
-5.405891437575075509e-01
-5.712547789988901004e-01
-4.961869783186173000e-01
-3.653998446888659379e-01
-2.574291964848344216e-01
-2.364445359454463436e-01
-3.172673153707979976e-01
-4.572682978792250164e-01
-5.795384987061508175e-01
-6.147676707968973142e-01
-5.391156463089838979e-01
-3.875269910594358325e-01
-2.352451206973366626e-01
-1.575160052397321098e-01
-1.892921544666499312e-01
-3.067474708216128554e-01
-4.405928108892683270e-01
-5.139482139013161754e-01
-4.842221361217802222e-01
-3.662829265904677944e-01
-2.243562757269546015e-01
-1.370429302526055548e-01
-1.544294362623664096e-01
-2.705579835316903603e-01
-4.262019245032285797e-01
-5.404707882387074225e-01
-5.541443601204187885e-01
-4.612786106237534711e-01
-3.119828878795199434e-01
-1.848920800901717454e-01
-1.442802207008171411e-01
-2.050810052889225354e-01
-3.247873339695331874e-01
-4.266240004257704777e-01
-4.414274149236318556e-01
-3.455177083215250078e-01
-1.740135735391485083e-01
-2.345784001924401674e-03
9.404060002656619566e-02
7.998468664629626579e-02
-2.090173173703586962e-02
-1.395456013266554163e-01
-1.992801743901811695e-01
-1.577194674399752250e-01
-2.992514848598989974e-02
1.197000752165778559e-01
2.123980619210057985e-01
1.979470509846901205e-01
8.219372536139046836e-02
-7.572091616037962547e-02
-1.949653627417194390e-01
-2.163502713388887055e-01
-1.339327180690779162e-01
2.208660991421154685e-03
1.135039979769528473e-01
1.357813892472646000e-01
5.424874493054580860e-02
-8.840461377736326398e-02
-2.151809598414809455e-01
-2.566554974963760061e-01
-1.888511287204837352e-01
-4.655693321550347097e-02
9.515363400351586898e-02
1.612149662235757841e-01
1.168614325948700156e-01
-1.389097601799501452e-02
-1.615633062439238987e-01
-2.490885785116753182e-01
-2.336935082527272223e-01
-1.300723828456568365e-01
-2.286945654593142141e-03
7.121338296713974891e-02
4.047828682473987583e-02
-8.841573368753308237e-02
-2.561433539174357565e-01
-3.817377338445696044e-01
-4.059262648319698630e-01
-3.227372311782785719e-01
-1.822764100004261034e-01
-6.319710360459478149e-02
-2.981017170886266984e-02
-9.710027539295210119e-02
-2.226210860070879649e-01
-3.296638271735463643e-01
-3.491330059120826834e-01
-2.574147392666898404e-01
-8.968819900003460743e-02
7.856372726658018835e-02
1.718546009120858198e-01
1.549947681735735217e-01
5.158111600722416895e-02
-6.931392360701035815e-02
-1.310103132911255575e-01
-9.109583539543424091e-02
3.540555400028794902e-02
1.841384461782341053e-01
2.763993428319514445e-01
2.620260228446390505e-01
1.469269819174851555e-01
-9.695515312332703139e-03
-1.269521328247144587e-01
-1.456018269671813803e-01
-5.965824334552934094e-02
8.083351784560888209e-02
1.973260452526984232e-01
2.256583395116850688e-01
1.510382482440382479e-01
1.614547901804452151e-02
-1.020398865948412004e-01
-1.341176132235865626e-01
-5.614155800355519199e-02
9.706165721535139901e-02
2.503736637204496129e-01
3.286753284963653265e-01
2.971375258415701048e-01
1.797015337774130472e-01
4.575948206949555924e-02
-2.772092924725450686e-02
1.922274022972333962e-03
1.198727600085313788e-01
2.619379890690295420e-01
3.495312703388475661e-01
3.325607707417514436e-01
2.169592461605144018e-01
6.190781663865245477e-02
-5.176974798462746774e-02
-6.494118092104812778e-02
2.822958778337823771e-02
1.775083904859409145e-01
3.041239164399466843e-01
3.436610323902055120e-01
2.810479293266933687e-01
1.586641167370906880e-01
5.317470335378342294e-02
3.365685797342504032e-02
1.237328090018150334e-01
2.882586325390977811e-01
4.518126383214154940e-01
5.389934229236171825e-01
5.147171854257975854e-01
4.027039099695884916e-01
2.721625972888937484e-01
1.999195597008408543e-01
2.285393500901424790e-01
3.431529638794715842e-01
4.795595456237087273e-01
5.592071871204025157e-01
5.320800222387763734e-01
4.042256305032723707e-01
2.349762685317350885e-01
1.053403582624287960e-01
7.466509325259278185e-02
1.490278507269082175e-01
2.784574355905043985e-01
3.844617221217047631e-01
4.029151499013247095e-01
3.190400138893114135e-01
1.755087158216649956e-01
4.927243946667614338e-02
9.682228239721236973e-03
8.061712069730614383e-02
2.271689530593811734e-01
3.741278923088776076e-01
4.462788207968925169e-01
4.086979637062392867e-01
2.852390258791872024e-01
1.452188043709131127e-01
6.554621494545787019e-02
8.884415048476024257e-02
2.002786406888132920e-01
3.356614113185756865e-01
4.164314329988486607e-01
3.925426777575402593e-01
2.699920435267148533e-01
1.080411015514130546e-01
-1.239172737440394356e-02
-3.206766286365134166e-02
5.496495663702276324e-02
1.985932032842932793e-01
3.201685638540392453e-01
3.553958846708082930e-01
2.893163839141574822e-01
1.644121628684836189e-01
5.743786207210913042e-02
3.754545154811600449e-02
1.284165319385738024e-01
2.949513160136051915e-01
4.617579529513858860e-01
5.534518552306464390e-01
5.349540280928123392e-01
4.299776050215639023e-01
3.077126645895716939e-01
2.449534006491948523e-01
2.842174611048012833e-01
4.105725421876275649e-01
5.597366990344678772e-01
6.530581738898577626e-01
6.404021408619028355e-01
5.276783653443347655e-01
3.740632976854336156e-01
2.603930619920983291e-01
2.458282048471953640e-01
3.362477927405377320e-01
4.814737972594035909e-01
6.028021923836008877e-01
6.358940009653335501e-01
5.657600778129904251e-01
4.348669751414476758e-01
3.199695466909716624e-01
2.902363000416861571e-01
3.693819000229118799e-01
5.223562091784854644e-01
6.738336581566164440e-01
7.485127868496833647e-01
7.114151851687713357e-01
5.863730131782828314e-01
4.427149808965726852e-01
3.573947596839356922e-01
3.731113286646364213e-01
4.751357898229848220e-01
5.994107720663179872e-01
6.675283200753738821e-01
6.296138226625419554e-01
4.918502341070036810e-01
3.136962333096781630e-01
1.762749381833107476e-01
1.390341192852178887e-01
2.081355518983178943e-01
3.336744337621068146e-01
4.372053623247459386e-01
4.546283692156853906e-01
3.711689538761220875e-01
2.294793524063387657e-01
1.064667280018790629e-01
7.141442640682560405e-02
1.481108161901771025e-01
3.015351779561888934e-01
4.563446090905098895e-01
5.371720915871590618e-01
5.089251530431739834e-01
3.952744137616144293e-01
2.653418971252743952e-01
1.958330423020859801e-01
2.291618308497541112e-01
3.502834826946003011e-01
4.948006810580913850e-01
5.839489326412812265e-01
5.674883022259518128e-01
4.512353992893389787e-01
2.942888790004500876e-01
1.774247426135591721e-01
1.597622965646284809e-01
2.471585040671765432e-01
3.894317527837085069e-01
5.078915850675569388e-01
5.382280007071608141e-01
4.654942722365481012e-01
3.322105771008666553e-01
2.151940594877511936e-01
1.836814789277539939e-01
2.614590483118015007e-01
4.135490372858003361e-01
5.646970422387369570e-01
6.396699024831147273e-01
6.035535067858569525e-01
4.802394538219006415e-01
3.391100413342556519e-01
2.571651960815951599e-01
2.771411279027389263e-01
3.843357081793156160e-01
5.147067083991158087e-01
5.898483538399379444e-01
5.598735570668967876e-01
4.309362594572661576e-01
2.624478860769152710e-01
1.354648295100972510e-01
1.093481474966633560e-01
1.901531930297865047e-01
3.278499690999342464e-01
4.438506594072123557e-01
4.738979235793315814e-01
4.030478859667822045e-01
2.737748444272817272e-01
1.628030059370634830e-01
1.392312259551282960e-01
2.266653727695037424e-01
3.899079122012263920e-01
5.534487812784470995e-01
6.417675120949490886e-01
6.196357191857232438e-01
5.106090771093148017e-01
3.837186235776000043e-01
3.156051957424333976e-01
3.486463210792330458e-01
4.677899054862035833e-01
6.086605715679894724e-01
6.925440420329427305e-01
6.692768021994907057e-01
5.447751052648391878e-01
3.782569349940501646e-01
2.506335743909245961e-01
2.211718845009665313e-01
2.958851043210195542e-01
4.247532879693666774e-01
5.292499206478561424e-01
5.452281798930449508e-01
4.579009143607885579e-01
3.099416683048857868e-01
1.783123252186960828e-01
1.323833012769739803e-01
1.960608317305426729e-01
3.344709767829291414e-01
4.724444798946140778e-01
5.348126000886352926e-01
4.867032197325490417e-01
3.520265411020829793e-01
2.001602487399692099e-01
1.080778924889073955e-01
1.184699519488948971e-01
2.165722577427101336e-01
3.382679531139119455e-01
4.050685944520728277e-01
3.670016407860169916e-01
2.301382885901123443e-01
5.381525913806695094e-02
-8.097294431333199038e-02
-1.149105182361562782e-01
-4.196800765489407115e-02
8.781980289648860794e-02
1.958822510053254140e-01
2.180008500797840365e-01
1.392910336029244411e-01
2.304846160845669401e-03
-1.161397868017739338e-01
-1.468370222374183465e-01
-6.606374007116087854e-02
9.110659777626049782e-02
2.492909399648194357e-01
3.330947514063782866e-01
3.074106133976995947e-01
1.959065196067584225e-01
6.771381253732720873e-02
-4.412511264822657764e-04
3.388733837281369954e-02
1.556980745307029179e-01
3.006484049143244852e-01
3.900399713012105973e-01
3.737094010772324948e-01
2.575583242312230459e-01
1.007759835050501818e-01
-1.576903161634178943e-02
-3.286687957363578633e-02
5.542347652238076294e-02
1.989935191242091783e-01
3.192106072232129832e-01
3.518034891895003291e-01
2.818421767986848958e-01
1.518396082092703658e-01
3.858064656751832022e-02
1.124442977217658679e-02
9.353457822298796853e-02
2.503667136248428071e-01
4.063570432945518562e-01
4.861218031054581612e-01
4.545767232568670435e-01
3.354258601245065918e-01
1.978498094910171312e-01
1.186371647302047749e-01
1.403085638821061076e-01
2.479479947487717717e-01
3.773076249041297237e-01
4.497918552547034432e-01
4.153478079544819512e-01
2.799960345279338680e-01
1.030545487202320226e-01
-3.446777257756215157e-02
-7.320772320929042065e-02
-7.056560037371956140e-03
1.140601077071092539e-01
2.117079598035411792e-01
2.218287543693521213e-01
1.297184039744376516e-01
-2.187424133942271476e-02
-1.559222738004210629e-01
-2.030030063732177759e-01
-1.391728401627767564e-01
7.149634357429962561e-04
1.414936303429710773e-01
2.079773661520001315e-01
1.652563590430116969e-01
3.718178194747370768e-02
-1.069491383562019560e-01
-1.902640990805504750e-01
-1.701933862109355489e-01
-6.163972317012336027e-02
7.112572980706532988e-02
1.494467773864298354e-01
1.231721973725719704e-01
-1.813658919736124610e-03
-1.663661010802205409e-01
-2.896847323725388335e-01
-3.126466693864733970e-01
-2.294107878071207640e-01
-9.019227582992617176e-02
2.626879321085787838e-02
5.559834808057552424e-02
-1.722729864375498882e-02
-1.497762959474143452e-01
-2.653297540429237489e-01
-2.947577561520050016e-01
-2.143883033430044605e-01
-5.931979843580181821e-02
9.506672916273602170e-02
1.734056283732093029e-01
1.406442408004530964e-01
2.052959033947865386e-02
-1.177057339743182718e-01
-1.972145733693239644e-01
-1.754135678036184698e-01
-6.715425070716175837e-02
6.337938603724860287e-02
1.376525072092754098e-01
1.056675035776346028e-01
-2.650749472018800595e-02
-1.995161335278752834e-01
-3.323209229544095145e-01
-3.655391622547145003e-01
-2.930504259041794568e-01
-1.647752907489089536e-01
-5.914923288218339181e-02
-4.023798073017342825e-02
-1.227598084909736487e-01
-2.639873241243601565e-01
-3.869231742568348120e-01
-4.221834541054656498e-01
-3.458738942945863148e-01
-1.929089086249070051e-01
-3.852919122309504674e-02
4.199237222781959655e-02
1.364590443251813279e-02
-9.982975720912545814e-02
-2.292609077985695576e-01
-2.979086271894725302e-01
-2.633449092232436062e-01
-1.406207631243496792e-01
5.839713477568571343e-03
9.722489657359201232e-02
8.322827161636500715e-02
-3.041780350499999688e-02
-1.847137982310844695e-01
-2.989939120771994419e-01
-3.142556473012326768e-01
-2.247608119144507699e-01
-8.080720553084073943e-02
3.880534762710479563e-02
6.966787912649338721e-02
-3.252190537208009269e-03
-1.375057036067027783e-01
-2.563309653976143521e-01
-2.905313764063775506e-01
-2.163467919648607296e-01
-6.876891977641590159e-02
7.694335307111890843e-02
1.455589192374195096e-01
1.021691278018617977e-01
-2.932840116069895808e-02
-1.795467446028063407e-01
-2.714833690797742727e-01
-2.624010020054030612e-01
-1.670010748965355396e-01
-4.932358934523296823e-02
1.223228223613147259e-02
-3.220582068663117858e-02
-1.764570061379244215e-01
-3.610668865900579227e-01
-5.049170827859930100e-01
-5.485636544521123037e-01
-4.858468261140339028e-01
-3.666709267428476249e-01
-2.694778519489270940e-01
-2.583605524888757943e-01
-3.480825287399232915e-01
-4.959759371019367702e-01
-6.251125937325132664e-01
-6.661820370886388787e-01
-5.953622708947214903e-01
-4.476337677829919093e-01
-2.982927777305762196e-01
-2.226539532769835350e-01
-2.557529112186084364e-01
-3.738592873047401621e-01
-5.077901943607447954e-01
-5.807800818930173303e-01
-5.503575406478868892e-01
-4.315144829695066742e-01
-2.886017103210717361e-01
-2.003452985009825105e-01
-2.169565443908561819e-01
-3.326014739939965326e-01
-4.881764622647913887e-01
-6.029133581994231550e-01
-6.177130750329907771e-01
-5.267501285681123191e-01
-3.802473684862530123e-01
-2.569444560793152643e-01
-2.212064607424269469e-01
-2.880386105774811467e-01
-4.149801281092564964e-01
-5.252719291856894346e-01
-5.497325090949589654e-01
-4.646278002784887673e-01
-3.049856232012845281e-01
-1.461107497695377511e-01
-6.329034495513830016e-02
-9.150025793697695586e-02
-2.069224254272231667e-01
-3.402631829667380758e-01
-4.146279935793206750e-01
-3.874028364072893416e-01
-2.734275950999874860e-01
-1.368954350298423051e-01
-5.637257749670488566e-02
-8.191105551006158669e-02
-2.075204410768732577e-01
-3.739451594572244519e-01
-5.002710830668215536e-01
-5.272604328399781437e-01
-4.489572183991681897e-01
-3.154622171793687868e-01
-2.054011779027640761e-01
-1.830330320815675982e-01
-2.632644723342122406e-01
-4.035439218218415114e-01
-5.270294847857659448e-01
-5.644647414831188703e-01
-4.920478592387709238e-01
-3.447448562858577703e-01
-1.978033423119094636e-01
-1.264566239277709059e-01
-1.656285314877165571e-01
-2.914493171008076255e-01
-4.345724262365052715e-01
-5.180480727071332669e-01
-4.992040930675884502e-01
-3.928194677837612003e-01
-2.630243320673045782e-01
-1.883207625646468319e-01
-2.186969946134904585e-01
-3.481009840004022915e-01
-5.172197192892011852e-01
-6.450877452258841904e-01
-6.724240226413259469e-01
-5.932395960581362537e-01
-4.576151626946547979e-01
-3.441720888498368547e-01
-3.171833773020762970e-01
-3.915906481252273696e-01
-5.248997827614735323e-01
-6.403495900431451782e-01
-6.687874935871697124e-01
-5.865378770905445016e-01
-4.287137889563482629e-01
-2.707280281902856300e-01
-1.879936404068431599e-01
-2.156245440018445536e-01
-3.299469644062840157e-01
-4.618115688760061621e-01
-5.344623622156754461e-01
-5.054128873247769604e-01
-3.896152047622455372e-01
-2.513556708983663013e-01
-1.692720022852607920e-01
-1.934643231832853250e-01
-3.179661443095402884e-01
-4.835217261068631700e-01
-6.091933796624677822e-01
-6.356978360753999802e-01
-5.570140510663613709e-01
-4.231614308231195221e-01
-3.126719116646661800e-01
-2.897023626839291266e-01
-3.690534128964501059e-01
-5.080674211782241212e-01
-6.297998141686844686e-01
-6.648974668496838714e-01
-5.894695561567211417e-01
-4.384016661786384050e-01
-2.868695800230203208e-01
-2.100431100416899899e-01
-2.427908626909406897e-01
-3.611968321413028260e-01
-4.958788948129482232e-01
-5.698648579653229351e-01
-5.404758813836794129e-01
-4.225022692594542773e-01
-2.801051667406667667e-01
-1.918385978472185727e-01
-2.077642329920277031e-01
-3.219248606852962435e-01
-4.751229353441998593e-01
-5.865277918618772013e-01
-5.970107168898747263e-01
-5.007503020345949185e-01
-3.480072301876822594e-01
-2.175921281048281974e-01
-1.739730746491685298e-01
-2.322889405895315063e-01
-3.502414320214234933e-01
-4.512602490927743459e-01
-4.663752902306613213e-01
-3.720814319514987312e-01
-2.036465520137622220e-01
-3.661904893860574300e-02
5.347488945186874149e-02
3.143333292797449025e-02
-7.913079086842941812e-02
-2.091003239141115688e-01
-2.817217016707827537e-01
-2.544806398540697678e-01
-1.422713862844324217e-01
-9.293662637075067456e-03
6.592820486360687071e-02
3.343129637447440905e-02
-1.006605235512742641e-01
-2.769181495266602733e-01
-4.142190607575084171e-01
-4.530882709988936496e-01
-3.873104993186163858e-01
-2.667124556888709197e-01
-1.696387544848392270e-01
-1.600679499454484844e-01
-2.526345523707911878e-01
-4.045296718791305257e-01
-5.386748797061527982e-01
-5.856032857968993532e-01
-5.213331793089825972e-01
-3.806845940594406064e-01
-2.387947206973410064e-01
-1.708221032397358730e-01
-2.116503084666477297e-01
-3.374017808216068781e-01
-4.787519718892649379e-01
-5.587999439013131564e-01
-5.349460921217841225e-01
-4.220624005905598830e-01
-2.843890287269602024e-01
-2.005515242526380859e-01
-2.206713642623586158e-01
-3.388358695316882052e-01
-4.958741355032177389e-01
-6.109627032387063839e-01
-6.249600541204198834e-01
-5.320122416237557106e-01
-3.823286978795256141e-01
-2.546517380901734406e-01
-2.133663047008198255e-01
-2.735160202888451408e-01
-3.926984069695254043e-01
-4.942337414257105266e-01
-5.090414219236326643e-01
-4.135091473214574931e-01
-2.428052745391499345e-01
-7.239029300192953431e-02
2.228268102655869137e-02
6.067713646254725701e-03
-9.738451173702716845e-02
-2.189377733266546222e-01
-2.818380793901778536e-01
-2.435886954399747173e-01
-1.191181054859944688e-01
2.732456221649177952e-02
1.171518159210013926e-01
1.003249639846541114e-01
-1.711970563860665262e-02
-1.758521021603672851e-01
-2.948600747417199353e-01
-3.147903313388896729e-01
-2.295605560690774372e-01
-8.914153600858726323e-02
2.796758997694831494e-02
5.762469824726555723e-02
-1.497541706944621742e-02
-1.471995787772686637e-01
-2.621476658414785832e-01
-2.905309194963724417e-01
-2.085426647204964568e-01
-5.117209921550836677e-02
1.062826720035148359e-01
1.885124122235722344e-01
1.604947795948731548e-01
4.598216798201424510e-02
-8.581048624392004220e-02
-1.580739835116741210e-01
-1.282800182527314703e-01
-1.134899284574783507e-02
1.284553503454017309e-01
2.125100389671373546e-01
1.907230378247412594e-01
6.906328431246952504e-02
-9.321609791742360707e-02
-2.151850358445704381e-01
-2.375731598319754112e-01
-1.543781641782804026e-01
-1.564485500043244492e-02
1.000616873954005559e-01
1.285425062911361715e-01
5.494480060712902264e-02
-7.813709200708032765e-02
-1.938340801734916297e-01
-2.228818469120834034e-01
-1.414928902666989508e-01
1.532842799996404250e-02
1.722718962665775733e-01
2.540185959120833670e-01
2.255385781735798623e-01
1.105783360072283006e-01
-2.165199360701140080e-02
-9.434794229112472563e-02
-6.498716639548501872e-02
5.150152800028558187e-02
1.908426711781493479e-01
2.743976768319487669e-01
2.520546928446400492e-01
1.297586889174860703e-01
-3.326475531232221672e-02
-1.561155608247144777e-01
-1.795542919671856141e-01
-9.760867934553078828e-02
3.964944784560353597e-02
1.536331132526978505e-01
1.801284395117026260e-01
1.042763242440415961e-01
-3.132500998186203700e-02
-1.497909145948360388e-01
-1.818286102235868729e-01
-1.036083460035650550e-01
4.992192521535045863e-02
2.035221907204499969e-01
2.819563534963579476e-01
2.502879708415716165e-01
1.323651737774211579e-01
-2.495050930500286590e-03
-7.737910524723658201e-02
-4.965593297702922820e-02
6.585154900844353287e-02
2.049688390690240503e-01
2.891515963388420207e-01
2.683740967417523882e-01
1.486584991605152395e-01
-1.070154536133597484e-02
-1.287467479846272911e-01
-1.461872089210504155e-01
-5.700974421662213798e-02
8.874310448593436540e-02
2.124992004398937873e-01
2.500421483902034447e-01
1.864900813267728052e-01
6.439524373709516747e-02
-3.942983064621242983e-02
-5.579306502657200434e-02
3.900438800180841548e-02
2.098530435390924820e-01
3.813216533214102699e-01
4.779554979236134149e-01
4.645756154257987824e-01
3.647681209695936566e-01
2.475734462889712384e-01
1.896192097008446154e-01
2.332461080900887773e-01
3.633414688794662228e-01
5.154466566237040359e-01
6.107438991204043877e-01
5.989497262387755150e-01
4.858488845032756243e-01
3.305220355317460279e-01
2.137434622624287128e-01
1.946495052525894498e-01
2.791352137269072498e-01
4.170798895904109793e-01
5.298776921217023261e-01
5.533266269013413785e-01
4.726098888893151551e-01
3.303968708216724615e-01
2.036696164666823849e-01
1.618411082397211986e-01
2.288802646972950272e-01
3.699933160593800174e-01
5.101056333088740402e-01
5.741541567968851956e-01
5.273798927061921216e-01
3.938099358792857552e-01
2.429391143709135892e-01
1.518552299454780097e-01
1.633573964848046844e-01
2.627821156888093812e-01
3.861031713185685277e-01
4.549109989988532887e-01
4.192988477575338435e-01
2.853897925267166458e-01
1.125580785514230103e-01
-1.817881637440320330e-02
-4.749664286365490318e-02
3.062822363702197292e-02
1.661414012842871712e-01
2.804396598539868890e-01
3.092599666708093498e-01
2.376623799141629467e-01
1.081341278684884999e-01
-2.579441927885013641e-03
-2.535099945188126064e-02
6.346009293856254285e-02
2.286960210136002036e-01
3.948895029513857513e-01
4.865635292306425552e-01
4.685312020928148469e-01
3.643850100215717536e-01
2.431854205896492593e-01
1.815926696491937387e-01
2.219911531047959741e-01
3.493210181876232889e-01
4.991831250344636040e-01
5.928230748898591917e-01
5.800216068619016285e-01
4.666253583443384367e-01
3.117714916854430474e-01
1.962826349920976376e-01
1.793329678471924926e-01
2.668430507405372132e-01
4.087042412593095420e-01
5.263091323835976665e-01
5.554414979653337081e-01
4.812595328129958272e-01
3.463991361414547887e-01
2.278024366909754128e-01
1.948375370416864649e-01
2.714242000229040719e-01
4.227150701784808118e-01
5.735765341566130271e-01
6.488796588496797968e-01
6.137911111687781585e-01
4.922538461783774744e-01
3.536677958965731006e-01
2.750147376839389146e-01
2.989769916646354275e-01
4.107645828229772311e-01
5.462168060663142866e-01
6.267834680753788801e-01
6.024129136625409053e-01
4.790808351070050541e-01
3.160135503096900278e-01
1.940823521833120457e-01
1.724699092852139404e-01
2.570662888982380712e-01
3.976952627621014313e-01
5.156470893247426801e-01
5.465710982156860576e-01
4.754620108761262731e-01
3.447671084063398395e-01
2.312195360018846624e-01
2.039634594068258922e-01
2.866854091901662183e-01
4.443011599561871861e-01
6.014422980905095306e-01
6.827528425871515205e-01
6.531855630432347182e-01
5.364874947616223855e-01
4.018847761252785089e-01
3.262108533020848800e-01
3.520275608497527853e-01
4.644536756945961686e-01
5.992670780580834355e-01
6.778860756412824484e-01
6.502570962259536236e-01
5.223826102893399659e-01
3.535428620004592570e-01
2.246880486135605648e-01
1.951019235645979899e-01
2.707943830671750152e-01
4.017239497837021278e-01
5.093265770675541315e-01
5.294041497071613200e-01
4.471066192365530378e-01
3.050350451008680963e-01
1.800711504877553493e-01
1.414994459277564287e-01
2.131365143117932570e-01
3.600169322857961762e-01
5.068797562387340472e-01
5.784655864831051986e-01
5.398136107858600985e-01
4.147480338219051155e-01
2.725639663342601104e-01
1.901566050815983733e-01
2.101430739027339845e-01
3.176914731793080149e-01
4.486232363991121130e-01
5.243943238399394469e-01
4.949825300668955208e-01
3.664150124572707057e-01
1.979896290769275757e-01
7.066665151013509782e-02
4.373193049665909105e-02
1.231892610297869312e-01
2.589828800999277592e-01
3.725264184072087370e-01
3.995917755793325088e-01
3.252919739667870513e-01
1.921854274272837837e-01
7.710727693706868890e-02
4.929368895512918625e-02
1.325131997694934394e-01
2.917540462012242486e-01
4.517110482784438830e-01
5.370817910949419183e-01
5.128612991857294245e-01
4.028248081093224187e-01
2.762093145776002845e-01
2.098385337424362174e-01
2.462410990792829601e-01
3.704768274861955923e-01
5.182373075679816976e-01
6.108266780329477674e-01
5.980499051994487836e-01
4.857424192648399641e-01
3.329944239940589856e-01
2.205463213909262810e-01
2.074561395009582587e-01
2.994964393210175491e-01
4.463814279693618103e-01
5.693004626478537222e-01
6.038111298930454174e-01
5.348257103607929608e-01
4.047184023048878143e-01
2.901590522187011412e-01
2.602395622769759775e-01
3.386074867305327585e-01
4.901560947829254333e-01
6.395146498946135960e-01
7.113487380886254208e-01
6.706598207325525918e-01
5.412730931020909297e-01
3.925234227399734266e-01
3.013831474889068773e-01
3.105812649488917110e-01
4.054288977427064622e-01
5.219175241139085708e-01
5.816959284520742957e-01
5.349532847860155593e-01
3.879424875901171799e-01
2.001973321380760285e-01
5.292002368670559870e-02
5.639889763842255432e-03
6.460099234510682797e-02
1.799798108964818233e-01
2.734095610053234870e-01
2.808647330797860997e-01
1.876399306029287450e-01
3.645041616084739033e-02
-9.573995680176897172e-02
-1.395974262374169161e-01
-7.128924507116991827e-02
7.420251477625686154e-02
2.215683079648262943e-01
2.954696674063613804e-01
2.608382903977055634e-01
1.413648556067702011e-01
6.187462537327867440e-03
-6.797647912647955537e-02
-3.870544562723468585e-02
7.895850053069505825e-02
2.206155259143966763e-01
3.074929243011900737e-01
2.893363350772306664e-01
1.719412802311326427e-01
1.437844150514716243e-02
-1.026108926163398077e-01
-1.199483025736658853e-01
-3.182307747761847772e-02
1.115325241242922372e-01
2.313740202232102139e-01
2.633349161895003898e-01
1.924103377986209340e-01
6.106130220927287466e-02
-5.395478943247720982e-02
-8.346123722783201082e-02
-3.731993777021491709e-03
1.501950236248448256e-01
3.030052032944781093e-01
3.794051881054519848e-01
3.444208612568720462e-01
2.218846111245141584e-01
8.112186449102352925e-02
-9.193432697730472003e-04
1.845324588210645739e-02
1.245039897488491032e-01
2.531694069040542061e-01
3.260361052547049443e-01
2.932239499544344041e-01
1.609086685280194384e-01
-1.146224527975907986e-02
-1.427834935775070258e-01
-1.736344412092915845e-01
-9.789196403730560103e-02
3.448758670710865698e-02
1.449938848035412231e-01
1.694491593693328857e-01
9.298966297444161144e-02
-4.183083033941984580e-02
-1.582102778003594556e-01
-1.869746083732165554e-01
-1.044465401627786838e-01
5.424248843564358213e-02
2.136413443429690528e-01
2.982794001520034932e-01
2.729675330430156865e-01
1.612893569474788402e-01
3.229245764387553286e-02
-3.737692508054806656e-02
-5.346605210891267057e-03
1.133159948297809416e-01
2.542113878070613175e-01
3.385939843864536059e-01
3.162634983725701177e-01
1.930957110802684895e-01
2.826598891988331419e-02
-9.735801637254054564e-02
-1.245533253864532230e-01
-4.735030480711543976e-02
8.418798617006627294e-02
1.914923002109049643e-01
2.103731710805779587e-01
1.260005693562509799e-01
-1.899535394732677213e-02
-1.476968150429198157e-01
-1.907781581519975012e-01
-1.243782573430881749e-01
1.658397456418715665e-02
1.568949971627312256e-01
2.213430363732035999e-01
1.750148918004585663e-01
4.178243633957620662e-02
-1.090113959743119476e-01
-2.004234163693409676e-01
-1.897884168036184649e-01
-9.189024470716886106e-02
2.914041003730984819e-02
9.480717020927428851e-02
5.513541157759174749e-02
-8.379986772007996798e-02
-2.626521865278664269e-01
-4.004113259544597736e-01
-4.377398042547193668e-01
-3.685805499041918676e-01
-2.429348517488308934e-01
-1.393341018821830368e-01
-1.219517807301960799e-01
-2.056217544908934824e-01
-3.477357671243525572e-01
-4.714147152568192167e-01
-5.073875981054719597e-01
-4.318633972945949973e-01
-2.798462986250050966e-01
-1.266502362230967349e-01
-4.760261277217416043e-02
-7.774763256743172368e-02
-1.933598092091229903e-01
-3.252576497986360282e-01
-3.966735681894724697e-01
-3.651304352232478956e-01
-2.456100481244450351e-01
-1.024474155224306682e-01
-1.434539542638148257e-02
-3.148268838358803112e-02
-1.479814925049955376e-01
-3.046817382311723943e-01
-4.207460340771938534e-01
-4.369948343012276526e-01
-3.475142009144510102e-01
-2.024347075308485511e-01
-8.040459837285178490e-02
-4.570356087349036756e-02
-1.132631615372073908e-01
-2.405666096066976234e-01
-3.508219593976084072e-01
-3.748422154063750233e-01
-2.889174049649389509e-01
-1.281291437764275065e-01
3.213618107111833322e-02
1.164854702374032575e-01
8.981745480186673070e-02
-2.418913216077968331e-02
-1.563878766027995415e-01
-2.300336320797727596e-01
-2.026584350054485284e-01
-8.923957489654238406e-02
4.590636265483258316e-02
1.241088892361114221e-01
9.523552931337506133e-02
-3.477593513801351816e-02
-2.066915625900452025e-01
-3.395854657859905257e-01
-3.741734364521067668e-01
-3.044185631140424730e-01
-1.803081467427669338e-01
-8.032572794897185897e-02
-6.856481348887627503e-02
-1.597500857399175300e-01
-3.111384551019288347e-01
-4.456939837325156195e-01
-4.939702880886512881e-01
-4.319856968947298759e-01
-2.945416717829910658e-01
-1.567406117306512359e-01
-9.369299527698153607e-02
-1.402243542186635272e-01
-2.723924263047381444e-01
-4.208043133607395903e-01
-5.084897058929997993e-01
-4.927807506478893429e-01
-3.884839899694281784e-01
-2.597782713211491123e-01
-1.852330925009808005e-01
-2.149201403908975461e-01
-3.428839579939956250e-01
-5.099181712647905540e-01
-6.351708181994085711e-01
-6.594780770329857766e-01
-5.769690345680430488e-01
-4.378406644863497288e-01
-3.208264460793165407e-01
-2.903050317424206717e-01
-3.613150325774808214e-01
-4.914487781092529706e-01
-6.040196981856329472e-01
-6.299373820949589753e-01
-5.455756862784815198e-01
-3.860843592013942782e-01
-2.269003427695463482e-01
-1.434488719551305635e-01
-1.708449379369717525e-01
-2.854056774272168417e-01
-4.179636659666583487e-01
-4.917372475793196918e-01
-4.642083244072463533e-01
-3.502928510999889777e-01
-2.142378980298470514e-01
-1.346397154966884890e-01
-1.615554935100551037e-01
-2.889747120768609290e-01
-4.575965754571997834e-01
-5.864372300668229121e-01
-6.161659958399650083e-01
-5.407129123992467923e-01
-4.100465471793729999e-01
-3.026454469027729521e-01
-2.826098650815642710e-01
-3.646801403342053716e-01
-5.061348958217466443e-01
-6.299637627857684885e-01
-6.667485924831193511e-01
-5.925385092388526509e-01
-4.421691402858619058e-01
-2.907818443118386220e-01
-2.135326489277615258e-01
-2.453011284877181231e-01
-3.622094101007188871e-01
-4.949408732365003782e-01
-5.666143397071486953e-01
-5.346641450675901908e-01
-4.140115647837709911e-01
-2.689616800672302577e-01
-1.782202495646427742e-01
-1.920034706135331504e-01
-3.045066210003956608e-01
-4.566779452892001934e-01
-5.678212432259179820e-01
-5.789263136413247413e-01
-4.842698640581440950e-01
-3.341863246946583099e-01
-2.075325038498382346e-01
-1.687928763020724587e-01
-2.330916911251560975e-01
-3.580846867614698170e-01
-4.671248860431331251e-01
-4.911365445871702096e-01
-4.064828960905447208e-01
-2.482783469564599221e-01
-9.190117019029653278e-02
-1.269647840682782552e-02
-4.567991300178855796e-02
-1.670525444062785914e-01
-3.075168848760693185e-01
-3.901500222156747411e-01
-3.722842433247787186e-01
-2.686803287623350522e-01
-1.434272528983715211e-01
-7.496280028524458794e-02
-1.131879461832696748e-01
-2.519409683095284458e-01
-4.317777671069489287e-01
-5.715819356624689540e-01
-6.119035500754013146e-01
-5.465689340664418028e-01
-4.254604828231235980e-01
-3.269901236646704512e-01
-3.152129046839053927e-01
-4.048467308964432410e-01
-5.531709921782186345e-01
-6.831984861686871691e-01
-7.255545688496873868e-01
-6.563489211568027670e-01
-5.104904931786398148e-01
-3.632017580229494613e-01
-2.897221820416937543e-01
-3.250114326909406270e-01
-4.452630161413876353e-01
-5.812184608129440377e-01
-6.560381509653214760e-01
-6.271792303837306903e-01
-5.095659422594567278e-01
-3.674862597405914588e-01
-2.796091278472095376e-01
-2.960950639920267857e-01
-4.110662036853840462e-01
-5.653824193441960855e-01
-6.782470438618709574e-01
-6.905412368898979913e-01
-5.964293640345992298e-01
-4.461344211876898669e-01
-3.184070131048857277e-01
-2.776343346491653152e-01
-3.388551325895249877e-01
-4.596533590214198495e-01
-5.633249180927678568e-01
-5.807515702306801364e-01
-4.882678209514988987e-01
-3.209719380136678013e-01
-1.542376219386941694e-01
-6.341671554812858269e-02
-8.354361507207022641e-02
-1.908516518684245378e-01
-3.160908429141036646e-01
-3.824027106707695300e-01
-3.472024038540719726e-01
-2.253531952843529917e-01
-8.106693963707746475e-02
7.075368863603326286e-03
-1.098975362556556257e-02
-1.292804955512629750e-01
-2.885474595266585007e-01
-4.078804947574626305e-01
-4.280438489988953599e-01
-3.430820973186349265e-01
-2.030961406889530418e-01
-8.671295748483898169e-02
-5.819563494545035298e-02
-1.324596273707843441e-01
-2.669679058791222248e-01
-3.848993787061015248e-01
-4.170245727969028038e-01
-3.395740923089236585e-01
-1.875504240595426420e-01
-3.623929569734087031e-02
3.908921176028047617e-02
3.478824533349883508e-03
-1.192263598216036502e-01
-2.596969538892636709e-01
-3.409909109013111173e-01
-3.204339841217384022e-01
-2.127931825905585161e-01
-8.217699972696075605e-02
-7.056588252610990208e-03
-3.738052426235817516e-02
-1.670492265316862179e-01
-3.366955105031336770e-01
-4.652946562386979235e-01
-4.935028971204222237e-01
-4.152666476238400239e-01
-2.806015448795301515e-01
-1.680647660901766760e-01
-1.418671277008167197e-01
-2.168910822888449330e-01
-3.505874869694460272e-01
-4.661456834257041160e-01
-4.943707569236143740e-01
-4.115532283215278531e-01
-2.527814755391591950e-01
-9.345296000186091578e-02
-8.974378973438355833e-03
-3.446162535373913788e-02
-1.462504147370324858e-01
-2.752076793266463595e-01
-3.445998663901951864e-01
-3.119687484399804034e-01
-1.923001244859997294e-01
-4.991922278343645381e-02
3.649287892099780523e-02
1.678915598466167169e-02
-1.031130736385055813e-01
-2.640080191603650928e-01
-3.850071827417266279e-01
-4.068742983388919376e-01
-3.236320050690894012e-01
-1.853393710085943780e-01
-7.056369002305175331e-02
-4.349294175273497182e-02
-1.189549420693747361e-01
-2.543159797772605035e-01
-3.726532918415375040e-01
-4.046350154963758716e-01
-3.263927637204960819e-01
-1.728373022154155447e-01
-1.917343799648482325e-02
5.939589622359063570e-02
2.796580159486809769e-02
-8.958456701798217514e-02
-2.239059882439880245e-01
-2.980494405116742573e-01
-2.693436472527334091e-01
-1.525657958457459495e-01
-1.183975665459825743e-02
7.434347596716167628e-02
5.601039182478492751e-02
-6.077108368752789924e-02
-2.166742659174366037e-01
-3.307260818445625361e-01
-3.436477678319730944e-01
-2.494658551783647538e-01
-9.829211300043733113e-02
3.120419739539984777e-02
7.468507429115153751e-02
1.712728360713270531e-02
-9.907230500716007748e-02
-1.972641051734853046e-01
-2.084200669120841454e-01
-1.090004072667732637e-01
6.573653599995472885e-02
2.402253162666438402e-01
3.388954829120690015e-01
3.264740971735861641e-01
2.264778060071499510e-01
1.079043733929971882e-01
4.736760770887712968e-02
8.722496460450784861e-02
2.124122050002806850e-01
3.585509401782236427e-01
4.469343018319215655e-01
4.274177388446480097e-01
3.059488179174917333e-01
1.417896086876803685e-01
1.590828417528544064e-02
-1.235893196720917742e-02
6.308234565445905440e-02
1.923039558455950093e-01
2.968801432526495532e-01
3.127718115117024689e-01
2.253042932439708323e-01
7.726612001814582575e-02
-5.426559559483872669e-02
-9.980710422360582201e-02
-3.534264200356476010e-02
1.043578032154432872e-01
2.442215477204466856e-01
3.091671374963684826e-01
2.643984668415154116e-01
1.338884717774250221e-01
-1.293748593049721951e-02
-9.907440924723701081e-02
-8.181706097703077274e-02
2.406859400852189024e-02
1.544478820689471621e-01
2.307993303388461703e-01
2.031030777417430211e-01
7.736970616051742911e-02
-8.713694636134097782e-02
-2.095064099845762584e-01
-2.305166409210475664e-01
-1.442399282166300645e-01
-8.188345141570130270e-04
1.210640874398896116e-01
1.570762763901932257e-01
9.221888032677617864e-02
-3.106848826290463383e-02
-1.360763716461599604e-01
-1.537014220265690567e-01
-6.031515799810999168e-02
1.089239225390688515e-01
2.785586823213985208e-01
3.731320439236291975e-01
3.574854144258052258e-01
2.552463109695976007e-01
1.355152402889628072e-01
7.499586970084676230e-02
1.161181010901382038e-01
2.438687818793739415e-01
3.938964396236994125e-01
4.874958151203915846e-01
4.744993592387840020e-01
3.608093875032868381e-01
2.056241165318372643e-01
8.983367426242912235e-02
7.268637625257971802e-02
1.601822337268201113e-01
3.022945695904080132e-01
4.204965841217472855e-01
4.506465739013433836e-01
3.779658908893187008e-01
2.451370098217663940e-01
1.291276274666798840e-01
9.930729623972579800e-02
1.795716786972909873e-01
3.350241710593753197e-01
4.904590333089427490e-01
5.706561147968958192e-01
5.406765367061892036e-01
4.243484838792875302e-01
2.909528843709204282e-01
2.173527419454570897e-01
2.461155844847577878e-01
3.623435616888086575e-01
5.017773373185601127e-01
5.857795579988513968e-01
5.642253617575330171e-01
4.430340085268108519e-01
2.813948415514185286e-01
1.601636356255972948e-01
1.385299781363479588e-01
2.224132466369365124e-01
3.616879902843682659e-01
4.777149398539832226e-01
5.062309246707956678e-01
4.323316109142336661e-01
2.985742538684891256e-01
1.818060680720686162e-01
1.512844575481214759e-01
2.308039709385666938e-01
3.853797650136946418e-01
5.397317709513779205e-01
6.185797722306599633e-01
5.869388850928695112e-01
4.686047550215796109e-01
3.328384525895836110e-01
2.564949766491960159e-01
2.821448591047922005e-01
3.949034191875272493e-01
5.305338420344591910e-01
6.104296648898444033e-01
5.845038768619524872e-01
4.587185393443500847e-01
2.923083896854387076e-01
1.661748579920985236e-01
1.395513978471615846e-01
2.183977157404496938e-01
3.526236742593071849e-01
4.636192283836444439e-01
4.871439249653526371e-01
4.083099958130000373e-01
2.696862161413752235e-01
1.481280006909755365e-01
1.128998240416797666e-01
1.878045480228990871e-01
3.378691191784795600e-01
4.878306331566801823e-01
5.624328578496804454e-01
5.267227091687753937e-01
4.045359991782876974e-01
2.651824268965800591e-01
1.855737576839381620e-01
2.083446636645826244e-01
3.186807038229769184e-01
4.524195580663039062e-01
5.310312410753590395e-01
5.045047896625427519e-01
3.788755011069965262e-01
2.134462613096861361e-01
8.917955818335759899e-02
6.536118928519625559e-02
1.479933208982328607e-01
2.870177257621793765e-01
4.038455493246920769e-01
4.342470682156865380e-01
3.633354408760586240e-01
2.336714764063452798e-01
1.220945560018883852e-01
9.784533940681899855e-02
1.846946071901708064e-01
3.476276659562765325e-01
5.113284120904243446e-01
6.004733355871512135e-01
5.800252450431927498e-01
4.737166267616301774e-01
3.507330051252786629e-01
2.878402393020997874e-01
3.275052438497529361e-01
4.547249566945887334e-01
6.051297960580011015e-01
6.999670646412707864e-01
6.889913602259553072e-01
5.779959332893519486e-01
4.260384240005449241e-01
3.138373516136034880e-01
3.004402195645956564e-01
3.916207790672493472e-01
5.371062637836143683e-01
6.581110240675528411e-01
6.902300607071456540e-01
6.184262422365576217e-01
4.851382391008782768e-01
3.671145164877509526e-01
3.335391489277502175e-01
4.081636573118646028e-01
5.559940972856987074e-01
7.017773742387309888e-01
7.702970604831109735e-01
7.266684097858608915e-01
5.948220598219053912e-01
4.441865033343426195e-01
3.518133740815977406e-01
3.604950929027228579e-01
4.555894931792270897e-01
5.731176753991097383e-01
6.347408788399592217e-01
5.906437920668976549e-01
4.470584784573565784e-01
2.634825890770204904e-01
1.210683875101442458e-01
7.928342949668057416e-02
1.443005040297105912e-01
2.662175610999227837e-01
3.665841954072514008e-01
3.812882045793334340e-01
2.955364139667893131e-01
1.519570664272866800e-01
2.742927593707299161e-02
-8.794508044855930962e-03
6.704151976942616942e-02
2.198835492012121695e-01
3.743561872784446631e-01
4.550615940949419569e-01
4.268789801857324484e-01
3.134536961094139818e-01
1.838858675776005869e-01
1.148625167424390525e-01
1.487825480792318855e-01
2.705889664861875765e-01
4.158743685680548752e-01
5.058653630329398299e-01
4.903132771994931360e-01
3.750251342649427166e-01
2.190884379941444859e-01
1.032662623908802979e-01
8.666344450093184382e-02
1.751212963210155849e-01
3.184416419694434119e-01
4.379167476478528775e-01
4.692188138930288854e-01
3.973831673607967074e-01
2.649124853048984152e-01
1.486076132186477938e-01
1.176910802769701447e-01
1.959379727305305408e-01
3.483636097829277412e-01
4.997116478946110329e-01
5.747519900886296496e-01
5.385772567326082561e-01
4.150871771020914203e-01
2.736714237399773264e-01
1.913350694889101311e-01
2.108160379488853708e-01
3.174091097427851338e-01
4.470628901139060973e-01
5.213557684520591096e-01
4.903785787860701073e-01
3.602582985902028079e-01
1.903763921379890145e-01
6.175823968671510789e-02
3.373466176384410514e-02
1.123333053450329827e-01
2.475008718964773757e-01
3.606324360053626554e-01
3.874610060797887834e-01
3.130410946029317798e-01
1.798535001607644568e-01
6.463685319823594955e-02
3.651212076258483763e-02
1.191148909287616658e-01
2.772849707762452542e-01
4.355570609648177216e-01
5.184623894063640215e-01
4.908305873977090728e-01
3.762809516067776583e-01
2.439126085373285180e-01
1.704371428735192429e-01
1.983030733727638995e-01
3.125268295306872779e-01
4.487964859143091512e-01
5.284539443011821991e-01
5.013829960772749894e-01
3.735373482311450388e-01
2.041622455051516349e-01
7.418626238365852443e-02
4.288419642633253814e-02
1.162685685223823068e-01
2.443106291242883310e-01
3.484673972232097960e-01
3.645683111895003936e-01
2.777956077986248329e-01
1.307856672092839179e-01
4.569095675214379648e-04
-4.386955422783753167e-02
2.165818922297672866e-02
1.621079946248423220e-01
3.022497692944759451e-01
3.668525691054458915e-01
3.209819092568721999e-01
1.884866181245150318e-01
3.868517649102996836e-02
-5.150460726977014458e-02
-3.944327811789960503e-02
6.005974974876068795e-02
1.828489389040556801e-01
2.504042652546719094e-01
2.127290519544369485e-01
7.587801752802446342e-02
-1.008208742797501306e-01
-2.363742625774971629e-01
-2.714600872092899353e-01
-2.000355950373128577e-01
-7.211576529289537296e-02
3.375437180353547950e-02
5.338708636933491708e-02
-2.806696902555492340e-02
-1.680166493394142924e-01
-2.896016118003539308e-01
-3.235709313732145209e-01
-2.461543741627726933e-01
-9.237675856436744493e-02
6.242859534296006652e-02
1.429173541520055990e-01
1.140320920430196033e-01
-5.097100525139688920e-04
-1.315273133561210006e-01
-2.022443380805489521e-01
-1.701634372108929150e-01
-5.023408017022665956e-02
9.325219580697391430e-02
1.816443623864457957e-01
1.648194703726144905e-01
4.870925808027696396e-02
-1.074804200801121323e-01
-2.228804753725423804e-01
-2.382982963864546666e-01
-1.478280738071144351e-01
-1.630379829937939062e-03
1.215956392109033973e-01
1.575008270805804411e-01
9.106907835625444037e-02
-3.527793194731533577e-02
-1.448488310429216497e-01
-1.685575091520036262e-01
-8.279069234308947256e-02
7.728120356419207471e-02
2.361939091627374143e-01
3.184900493731979143e-01
2.890201688004582214e-01
1.714332253395774441e-01
3.486642302568956214e-02
-4.392172536933788840e-02
-2.242577980362425033e-02
8.443924929273932678e-02
