5.819999999999999843e-05
7.071756102421500323e-02
1.045726485079186835e-01
8.482950580175029065e-02
2.403076922902109419e-02
-4.265122259329339610e-02
-7.638859525088018132e-02
-5.566370400914079364e-02
1.213116231019331290e-02
9.474296906615868596e-02
1.525581765997583439e-01
1.600665409418803586e-01
1.196539040304100965e-01
6.024871205805518160e-02
2.155825054454449385e-02
3.244264819463597849e-02
9.515291197026470860e-02
1.839809474382632926e-01
2.590575049873194979e-01
2.878229165356877006e-01
2.625362273321287798e-01
2.043355666926978398e-01
1.516521301237663821e-01
1.392610728445573542e-01
1.793274922903532465e-01
2.547237694329709257e-01
3.282421498617157374e-01
3.627098036739123676e-01
3.411033273653845677e-01
2.757595889112537391e-01
2.016899410861600350e-01
1.576216439671075387e-01
1.650428824555409679e-01
2.166098253998006151e-01
2.801989663312448586e-01
3.164067822644187622e-01
3.000091804038956811e-01
2.337464223602604696e-01
1.469587864967511481e-01
7.980977700023367261e-02
6.164574573792508394e-02
9.521889232821290072e-02
1.553222444869950813e-01
2.025731772432085298e-01
2.048708506450589995e-01
1.548936415594345806e-01
7.414974140711128037e-02
1.383610284151987058e-03
-2.837834951723749999e-02
-2.784865007226675071e-03
6.115632882034292145e-02
1.262913770670864577e-01
1.554368948187369592e-01
1.314970970337074052e-01
6.667845262191963995e-02
-4.191305236988032701e-03
-4.261661659287529352e-02
-2.738390320513813675e-02
3.385081057759481427e-02
1.086202035513766373e-01
1.571525034548664213e-01
1.538397056738684265e-01
1.010326144549738847e-01
2.768741124981880658e-02
-2.640030921638412964e-02
-3.222590509059433672e-02
1.265613467634562478e-02
8.277447667348319937e-02
1.385300352426660497e-01
1.476572861821159321e-01
1.027239065431363452e-01
2.518184636257363856e-02
-4.622738521857817917e-02
-7.642967043715429010e-02
-5.297911440921580783e-02
7.253413185736814171e-03
6.728786818092610811e-02
9.014581180795527837e-02
5.896137758232289361e-02
-1.381057862083450057e-02
-9.308205025166571556e-02
-1.400914185879895690e-01
-1.333587742185440017e-01
-8.027882592593379996e-02
-1.306801695600753876e-02
2.873678077673583187e-02
1.974101039031590787e-02
-3.751759275449544767e-02
-1.139267347133664232e-01
-1.695688018933564911e-01
-1.753532212021921000e-01
-1.287853909835340316e-01
-5.532392467681061798e-02
5.410071392065410323e-03
2.109689571059342184e-02
-1.577889862731507442e-02
-8.387377419261796141e-02
-1.445759291063130614e-01
-1.629579545252368700e-01
-1.267332531473008284e-01
-5.294021789959725555e-02
2.126946613385560791e-02
5.874540159381783089e-02
4.245283872735676478e-02
-1.531632454042003433e-02
-7.962879829534134923e-02
-1.118676211406338522e-01
-9.068612168427964138e-02
-2.359969142611000048e-02
5.706818996864979759e-02
1.116883874597680015e-01
1.147899203289431819e-01
6.885084238578073612e-02
2.941225304305079835e-03
-4.304541531630169671e-02
-4.002389310533217837e-02
1.451404013981139746e-02
9.514213178938155102e-02
1.622891885861414418e-01
1.837009253408075082e-01
1.519399987205711511e-01
8.843723197330810581e-02
3.189670503788323563e-02
1.733829605379610950e-02
5.713620785136711011e-02
1.343300722590296259e-01
2.118327961709614571e-01
2.525424874241413153e-01
2.394553096752098931e-01
1.848759934675119065e-01
1.237329025374077907e-01
9.462131630308506791e-02
1.188509493724390492e-01
1.888558226512168370e-01
2.722497970646727827e-01
3.293303813431537330e-01
3.345438437142060351e-01
2.902775721037030854e-01
2.255048484674997411e-01
1.800182278472832742e-01
1.827996282120580851e-01
2.362536225135855039e-01
3.148522990172338276e-01
3.789279445018794434e-01
3.961385729504058872e-01
3.589718943332510515e-01
2.888004543276303515e-01
2.242903764228512120e-01
2.004470654249490835e-01
2.296562619418541507e-01
2.949968406856524616e-01
3.594493335351758301e-01
3.860073474080067957e-01
3.577888441322782387e-01
2.872441795086450589e-01
2.094681646115168494e-01
1.632400642727822593e-01
1.700676485845947494e-01
2.225933670024112521e-01
2.886460200615458827e-01
3.287406721576330848e-01
3.175398542336160812e-01
2.576418909757523523e-01
1.782215061401329625e-01
1.192590786034075923e-01
1.099068671991187962e-01
1.527188257680149874e-01
2.222923424837450201e-01
2.790581400476274121e-01
2.907434253739909491e-01
2.498740853685791075e-01
1.778289386426295804e-01
1.132486776130345596e-01
9.108288900183646175e-02
1.236333373162395721e-01
1.938697091457379229e-01
2.646415322195516118e-01
2.987932812735076271e-01
2.792795009166910702e-01
2.183768236882857872e-01
1.509999413536902146e-01
1.157451803830976678e-01
1.339377314491903559e-01
1.980406885250455551e-01
2.757092895955982614e-01
3.272930654329901379e-01
3.272990232784817044e-01
2.781817470333639575e-01
2.089855105804110380e-01
1.595747508295324857e-01
1.590014145490569741e-01
2.097358644109916515e-01
2.863096643116884166e-01
3.491064935615775799e-01
3.658263425655088330e-01
3.289887585961388528e-01
2.599878905030392207e-01
1.975016338078568190e-01
1.765379591988701091e-01
2.094764530060390650e-01
2.793811434932033100e-01
3.492086039105990469e-01
3.819187883568268549e-01
3.605857566406331927e-01
2.976051963328671390e-01
2.280059080577443997e-01
1.904891739665905692e-01
2.064723322307164266e-01
2.684949581345241754e-01
3.442711877821864608e-01
3.941908748682451669e-01
3.927824593547607490e-01
3.425032236575208944e-01
2.723819099627768914e-01
2.222499062682291027e-01
2.211094702096463305e-01
2.713657371014914776e-01
3.474709562529738616e-01
4.097172811531937797e-01
4.257032191469175553e-01
3.878394062034231649e-01
3.174062746210911112e-01
2.529659211180729228e-01
2.294114583223808568e-01
2.590120772424969742e-01
3.247299775551564793e-01
3.894328386534776643e-01
4.160087315045689071e-01
3.874802525069779846e-01
3.162147335383446167e-01
2.372376422423891629e-01
1.892731224984089411e-01
1.937879949099365340e-01
2.433976188936586016e-01
3.059171163819400796e-01
3.418607335892852039e-01
3.259023996854121252e-01
2.606632519773794954e-01
1.753512422223057199e-01
1.099890856643437886e-01
9.377898185733390957e-02
1.293307887015082425e-01
1.913020767556337098e-01
2.401864124182927496e-01
2.437750215998275016e-01
1.946576874873885976e-01
1.142758612457653034e-01
4.133063510432814780e-02
1.082900884342818948e-02
3.512662326135293500e-02
9.724303745849251224e-02
1.600732828818887121e-01
1.865026831793000217e-01
1.595216960531455341e-01
9.143762730469096045e-02
1.719039711760886324e-02
-2.460390147591424992e-02
-1.260559010987052919e-02
4.565806300117673799e-02
1.178477237613460155e-01
1.643148329566672949e-01
1.595653209249657534e-01
1.060500367348386763e-01
3.280698149526602853e-02
-2.030833761048220221e-02
-2.425594250521823092e-02
2.341898381588273376e-02
9.722833359447950741e-02
1.575315374874649010e-01
1.719994252360252940e-01
1.331173034279058975e-01
6.224024119544637607e-02
-1.996798700176827257e-03
-2.463071738525578203e-02
6.673885590780442856e-03
7.494045153693545958e-02
1.430913356626473121e-01
1.740610279293604568e-01
1.509086409019917419e-01
8.602651879072792385e-02
1.445205573219521256e-02
-2.509338174672329225e-02
-1.116202224588327963e-02
4.882474559152379101e-02
1.226264647760254567e-01
1.706822407329807723e-01
1.675710149703701912e-01
1.157994972557354618e-01
4.444304092379853383e-02
-6.624251091572858074e-03
-8.362018439640656053e-03
4.166756367909257852e-02
1.179428798202750289e-01
1.807741534723406596e-01
1.977681327238961229e-01
1.613320970243050101e-01
9.273012388014605090e-02
3.049428093787680261e-02
9.474182466047267881e-03
4.188313881816381479e-02
1.106168527128571916e-01
1.784681092745286080e-01
2.082443418836066040e-01
1.828848260267789960e-01
1.146741773375624662e-01
3.855902887634288234e-02
-6.808552406941004165e-03
-2.481519081731775600e-05
5.147307030009692225e-02
1.154590989912162580e-01
1.524179587181822004e-01
1.370052398938112204e-01
7.183437268423459310e-02
-1.388443168422954371e-02
-8.011687789380889102e-02
-9.764055071818381060e-02
-6.381747799122092224e-02
-3.954963300102101731e-03
4.248157519081449673e-02
4.332892140694205585e-02
-8.774528876338498484e-03
-9.233715633755706920e-02
-1.686075680267755117e-01
-2.025296688836069059e-01
-1.817011142745324492e-01
-1.230590307128625327e-01
-6.366930181816769785e-02
-4.061231646604757106e-02
-7.086819193787333160e-02
-1.421046398801406596e-01
-2.193605610243005710e-01
-2.640017717238950512e-01
-2.546728984723435341e-01
-1.988874288202802099e-01
-1.289725246790972557e-01
-8.456593656036096029e-02
-9.115211290842480107e-02
-1.462716409237988513e-01
-2.208788282557357652e-01
-2.751110489703691986e-01
-2.799214937329815855e-01
-2.328486727760252228e-01
-1.593743555915262955e-01
-9.913367875411965846e-02
-8.445217625327679223e-02
-1.228438957321931896e-01
-1.929576277907226189e-01
-2.561685449019919791e-01
-2.775317949293606423e-01
-2.447398096626471897e-01
-1.748071355369352764e-01
-1.048589335907824105e-01
-7.201595961474449581e-02
-9.327905229981967028e-02
-1.563163951954381625e-01
-2.261468694279014646e-01
-2.640962312360242703e-01
-2.487503804874692803e-01
-1.875476695944846839e-01
-1.127268548158874145e-01
-6.382797449478427865e-02
-6.623306138951547128e-02
-1.173805944952609620e-01
-1.881280637348309859e-01
-2.385257459249634504e-01
-2.394531259566689274e-01
-1.883913527613531869e-01
-1.107833000011819308e-01
-4.624488989013232632e-02
-2.710261952408418717e-02
-6.089146311760446767e-02
-1.263001773046855680e-01
-1.847614700531402254e-01
-2.014038261793003048e-01
-1.640067938818925986e-01
-8.968357945850069513e-02
-1.566728626135681368e-02
2.080608115657152368e-02
2.614762895673528043e-03
-5.803442424575993436e-02
-1.262874644873841767e-01
-1.635966305998269865e-01
-1.486701564182955904e-01
-8.906023475563888681e-02
-1.710626070151043121e-02
2.756903214266449853e-02
1.952340133565852454e-02
-3.871522522230596425e-02
-1.180079599773770638e-01
-1.783766696854097999e-01
-1.906396945892850914e-01
-1.521847903819422698e-01
-8.833079489366378600e-02
-3.854145990993637638e-02
-3.496618449840849241e-02
-8.494182324238483406e-02
-1.669425385383449811e-01
-2.421748375069764092e-01
-2.755341395045692310e-01
-2.545645776534773974e-01
-1.961459075551590381e-01
-1.372838222425008525e-01
-1.149966443223808948e-01
-1.462015871180712967e-01
-2.185038066210857333e-01
-2.968813522034233765e-01
-3.426424151469171786e-01
-3.343787171531966140e-01
-2.795567102529736281e-01
-2.104631671014936534e-01
-1.667026062096479966e-01
-1.737335882682292665e-01
-2.290780659627745797e-01
-3.036786696575159428e-01
-3.576677383547609002e-01
-3.619997758682459987e-01
-3.142206497821911637e-01
-2.398250701345293612e-01
-1.784659652307192257e-01
-1.624905749665900845e-01
-1.994374870577400871e-01
-2.679817153328618029e-01
-3.295252526406316496e-01
-3.491497443568271630e-01
-3.145731709106029950e-01
-2.428344864932058533e-01
-1.710823980060429961e-01
-1.364611261988704083e-01
-1.559961948078552041e-01
-2.173833065030338074e-01
-2.856731245961344756e-01
-3.222282195655082893e-01
-3.056760615615804477e-01
-2.434998303116936713e-01
-1.679836124109938822e-01
-1.187094785490585697e-01
-1.210938148295302302e-01
-1.725973985804086508e-01
-2.440840830333589340e-01
-2.955917002784780867e-01
-2.979669354329909647e-01
-2.486375915956029192e-01
-1.729738225250535555e-01
-1.105018944491916733e-01
-9.344503338309666229e-02
-1.292252693536835306e-01
-1.964131786882832575e-01
-2.563227109166876239e-01
-2.739673052735080994e-01
-2.370188742195534215e-01
-1.624935081457405117e-01
-8.754033331624348768e-02
-4.932668700183662214e-02
-6.492295561303290663e-02
-1.220903256426242450e-01
-1.859643373685770651e-01
-2.180102893739904735e-01
-1.969742340476303422e-01
-1.304712974837461126e-01
-5.092793876801722519e-02
1.924296800879549130e-03
2.516133396592901139e-03
-4.676546614013059322e-02
-1.169317749757473462e-01
-1.681590202336155637e-01
-1.714191421576338747e-01
-1.242481220615505866e-01
-5.210350100241233073e-02
5.425315415403877961e-03
1.607918372721876821e-02
-2.757037561151594318e-02
-1.040694195086410700e-01
-1.746756981322747926e-01
-2.043150564080069009e-01
-1.805418245351787521e-01
-1.202270096856578596e-01
-6.035045694185493803e-02
-3.788981842494934527e-02
-6.970932042284772034e-02
-1.433513903276292245e-01
-2.237240883332432539e-01
-2.720606649504054286e-01
-2.668750255018823014e-01
-2.155547530172404191e-01
-1.503082365135889886e-01
-1.106633372120598008e-01
-1.220046198472803795e-01
-1.817833594674961029e-01
-2.608753111036979933e-01
-3.193500427142031417e-01
-3.281035763431549568e-01
-2.846277730646775139e-01
-2.143681256512234290e-01
-1.569334363724412262e-01
-1.446321633030840936e-01
-1.849696935374023354e-01
-2.565936364675079906e-01
-3.208845646752064851e-01
-3.429087504241418172e-01
-3.103747311709644241e-01
-2.403176572590350335e-01
-1.698877958513720365e-01
-1.362360270537963935e-01
-1.563993280378798145e-01
-2.180893999733014010e-01
-2.863774367205679239e-01
-3.226512313408067545e-01
-3.055684435861450443e-01
-2.426477257893840389e-01
-1.662142351398148699e-01
-1.158968668946699504e-01
-1.171643716836971993e-01
-1.675345703043014112e-01
-2.379314133857743929e-01
-2.884535613289421208e-01
-2.900062564597692405e-01
-2.400700559686557711e-01
-1.640583235738924117e-01
-1.015275163157224880e-01
-8.471541585936483154e-02
-1.210414807046566038e-01
-1.890562304595759802e-01
-2.500367287273533856e-01
-2.689444315938178676e-01
-2.333868121338585344e-01
-1.603062821004081206e-01
-8.677236885270005196e-02
-4.986996447476338412e-02
-6.658680489368351552e-02
-1.246033638073809208e-01
-1.889781463726817323e-01
-2.211048177105923995e-01
-1.996651743920668243e-01
-1.322197423231931956e-01
-5.115256501647074544e-02
3.832481202191317937e-03
7.176940893358241258e-03
-3.873951928662856120e-02
-1.049540582455034399e-01
-1.516871333903148100e-01
-1.499721237767374094e-01
-9.742150704399341055e-02
-1.958148307406857441e-02
4.386114721854150744e-02
6.054486158798982887e-02
2.293766525166781450e-02
-4.760755437916080329e-02
-1.124440685823221708e-01
-1.365853168079553814e-01
-1.076635551809295432e-01
-4.261681718573784305e-02
2.151972440921340324e-02
4.772525743715408386e-02
1.910472821857797654e-02
-5.190289836257171857e-02
-1.302124405431331344e-01
-1.770525611821157919e-01
-1.709218682426670299e-01
-1.191827576734869609e-01
-5.400960167634599046e-02
-1.488867390940616653e-02
-2.715680478361415240e-02
-8.821292824981835645e-02
-1.688774674549721744e-01
-2.291632376738667043e-01
-2.399094174548665470e-01
-1.985519135513781896e-01
-1.304818595775979473e-01
-7.525594179486164159e-02
-6.513341440712436259e-02
-1.075739967630138655e-01
-1.811837766219199231e-01
-2.473064910337061661e-01
-2.709767748187366654e-01
-2.398771440670856292e-01
-1.710224958203438728e-01
-1.015483309927714961e-01
-6.859571148276333297e-02
-8.919617128414775165e-02
-1.510597364071025739e-01
-2.192589945594257128e-01
-2.551853886450579090e-01
-2.375015792432130235e-01
-1.737319734870052812e-01
-9.620833932821865053e-02
-4.456783073792783267e-02
-4.429022700022935966e-02
-9.290835849674534963e-02
-1.613664673602526189e-01
-2.097901144038917531e-01
-2.091192102644207351e-01
-1.568773713312517637e-01
-7.852906139981044586e-02
-1.368815645554426197e-02
5.346923032893816097e-03
-2.890305908615195540e-02
-9.504303691124812992e-02
-1.543948883653795678e-01
-1.719519096739131059e-01
-1.353383448617199170e-01
-6.149755643297851598e-02
1.251536170963994665e-02
4.964402415544216796e-02
3.294135187623838806e-02
-2.522268769268871252e-02
-8.984912433212444149e-02
-1.222699305356864108e-01
-1.011034529873243576e-01
-3.384700243826846422e-02
4.717676402972895144e-02
1.023220888053610889e-01
1.060838004554576913e-01
6.088821194195119524e-02
-4.263636030401994625e-03
-4.956411394187833219e-02
-4.603020659976046758e-02
8.728851933833652044e-03
8.915577468980194487e-02
1.555375430091370526e-01
1.754710992508817236e-01
1.413683055932970500e-01
7.451305277098535518e-02
1.347298519825490537e-02
-6.850969507919024704e-03
2.582077097578021341e-02
9.446363799999739352e-02
1.619614790242118185e-01
1.912213595079182427e-01
1.652874638017518549e-01
9.655104822902525752e-02
2.006347540671158530e-02
-2.542383525087979490e-02
-1.841611800914293162e-02
3.372983031018751687e-02
9.885613706615679896e-02
1.375024315997570579e-01
1.243655529418828398e-01
6.208622703041191682e-02
-2.011202694194126617e-02
-8.219533945545318132e-02
-9.495488980536451185e-02
-5.577864802973849651e-02
9.988902438257934308e-03
6.283531598731847967e-02
7.054210353568834968e-02
2.568596133213307126e-02
-5.030760130730067836e-02
-1.187556238762315919e-01
-1.446707291554429342e-01
-1.157176547096478991e-01
-4.889724856703235589e-02
1.866567986171197013e-02
4.983764767391232059e-02
2.759184436538634350e-02
-3.577953308874125965e-02
-1.053489019138394156e-01
-1.425092220328919024e-01
-1.259261675444615924e-01
-6.312837960020009631e-02
1.354752333124222691e-02
6.445971226441730983e-02
6.412459140389625833e-02
1.500676636026252592e-02
-5.383925450324473366e-02
-1.025392809997661275e-01
-1.020331302620756109e-01
-4.984502967179089972e-02
2.855766548699475646e-02
9.355381724320716019e-02
1.128312096450598545e-01
7.888847455943434617e-02
1.308925140711320739e-02
-4.592878471584545957e-02
-6.320659551723742386e-02
-2.642002700722800856e-02
4.743643482033901848e-02
1.212620950670861286e-01
1.579653838187369264e-01
1.405785350337094841e-01
8.146818562191941726e-02
1.564889476301806193e-02
-1.817660359287458227e-02
1.425908794862013051e-03
6.702697057758758015e-02
1.463836215513737993e-01
1.999378594548667509e-01
2.022764426738713484e-01
1.559180024549770005e-01
8.995288124981785927e-02
4.427210578361881477e-02
4.793373490940466830e-02
1.033931006763465776e-01
1.851452196734766076e-01
2.535156352426643500e-01
2.761247181821157026e-01
2.453911885431327156e-01
1.825878463625768555e-01
1.262522947814216923e-01
1.112361955628461546e-01
1.497513365907829352e-01
2.246884901857386652e-01
2.988324101809299860e-01
3.349796608079552707e-01
3.160560085823218568e-01
2.543302243791714101e-01
1.847312927483454326e-01
1.458925364120121082e-01
1.591986007814526483e-01
2.171933950740525532e-01
2.876324970439839146e-01
3.309829667767340000e-01
3.218837953903217475e-01
2.629329212455133735e-01
1.833260672866384999e-01
1.230838791066487248e-01
1.114158657978052969e-01
1.509477610164612349e-01
2.163606173231772123e-01
2.681779793920610055e-01
2.742264577105943957e-01
2.271356653726950003e-01
1.483904808073915615e-01
7.673815689369034576e-02
4.723373547476222845e-02
7.228196985269211283e-02
1.349519151003972517e-01
1.981878581338465117e-01
2.249236395938171706e-01
1.981971767273602025e-01
1.303619724595922735e-01
5.640256670466529954e-02
1.497772485936683939e-02
2.746747431571361364e-02
8.638215157388193233e-02
1.594167719686463147e-01
2.069533414597641008e-01
2.035240443289466628e-01
1.516012653857843617e-01
8.023964630431668077e-02
2.930654868370176358e-02
2.784929589466660083e-02
7.832577313980038092e-02
1.552466147893735438e-01
2.189652795861392331e-01
2.371412313408098327e-01
2.022421307205766183e-01
1.355980599733120351e-01
7.581042003789024986e-02
5.779902605379565184e-02
9.384574385136415509e-02
1.669106942590185549e-01
2.398446211709565068e-01
2.755044794241411354e-01
2.568690756752097237e-01
1.962515224675186465e-01
1.286154875374110051e-01
9.261894030308501224e-02
1.096613453724354370e-01
1.722921606512129722e-01
2.482638030646730498e-01
2.980315823431516353e-01
2.962136687142076785e-01
2.453772921037027377e-01
1.746768524675060830e-01
1.240805628472849559e-01
1.227340302120582261e-01
1.731874165135795507e-01
2.500346030172299616e-01
3.137007105018795317e-01
3.319032399504074915e-01
2.971527443332520058e-01
2.308059153276286191e-01
1.714736614228546119e-01
1.540677324249489777e-01
1.908443139418553591e-01
2.647206876856470492e-01
3.384885535351750407e-01
3.749310394080069275e-01
3.569402121322816646e-01
2.967318635086461653e-01
2.291644786115154542e-01
1.927858242727832905e-01
2.088830565845933851e-01
2.698944040024129354e-01
3.434658200615411383e-01
3.899551081576323464e-01
3.838963362336153540e-01
3.277902249757573827e-01
2.507455581401353273e-01
1.927080186034068610e-01
1.828249901991170767e-01
2.236731657680127439e-01
2.898975294837466410e-01
3.419982050476245705e-01
3.477904733739913823e-01
2.999039033685765854e-01
2.198336226426349238e-01
1.463464606130361334e-01
1.145253930018367006e-01
1.368104653162356410e-01
1.963121711457353757e-01
2.560209482195539010e-01
2.789199102735074876e-01
2.480978749166908859e-01
1.759596256882826615e-01
9.754037235369222847e-02
5.154801138309766939e-02
5.940926444919200633e-02
1.136779545250430762e-01
1.820889035955984558e-01
2.250600874329911627e-01
2.171558812784827319e-01
1.608771850333636511e-01
8.530356558040809445e-02
3.032383982953482104e-02
2.500336354905703662e-02
7.181464641099438717e-02
1.452796153116831801e-01
2.057599195615777421e-01
2.209204085655082639e-01
1.832316595961431538e-01
1.140244375030387974e-01
5.189868680785475474e-02
3.177052219886977724e-02
6.591547300603925463e-02
1.372841444932064170e-01
2.087140009105949989e-01
2.430444253568268820e-01
2.232320356406312101e-01
1.615632183328724603e-01
9.297088805774404718e-02
5.607921796658998925e-02
7.225233023071349348e-02
1.340048361345135552e-01
2.090571487821817620e-01
2.578376838682444050e-01
2.549446133547656479e-01
2.029331246575260539e-01
1.309536729627793772e-01
7.897805826823381392e-02
7.616216620964462447e-02
1.250722141014893596e-01
2.003228492529632032e-01
2.623635111531908981e-01
2.789383781469180201e-01
2.425859682034322562e-01
1.746914676210964967e-01
1.138943701180746143e-01
9.513478832238014826e-02
1.306966652424931263e-01
2.035239535551540413e-01
2.764332996534695774e-01
3.122300805045685190e-01
2.938245065069797213e-01
2.334445785383557348e-01
1.659530752423935551e-01
1.298923974984094176e-01
1.465333989099307233e-01
2.082864308936534514e-01
2.827581453819378310e-01
3.302566285892817866e-01
3.252575486854145659e-01
2.701968599773819646e-01
1.941150792223160504e-01
1.368893056643460393e-01
1.276012418573341523e-01
1.687677657015011490e-01
2.349823937556285158e-01
2.867040294182928717e-01
2.917182525998291975e-01
2.426370354873930713e-01
1.609499342457650639e-01
8.542956010433339076e-02
5.117496684342802415e-02
7.065125026135324338e-02
1.270015474584842985e-01
1.832551318818847474e-01
2.024386441792999092e-01
1.676874110531508810e-01
9.145390430469631238e-02
8.820525117608599142e-03
-4.145953447591280844e-02
-3.791724410987331456e-02
1.203974600117705546e-02
7.618042376133879467e-02
1.149522629566655241e-01
1.029444729249657658e-01
4.267838273484636513e-02
-3.674993850472899753e-02
-9.543861261048243450e-02
-1.043121765052206495e-01
-6.089053818412194091e-02
9.353780594479763066e-03
6.678648548746045355e-02
7.907555823602648026e-02
3.869435542790577998e-02
-3.302335680454542011e-02
-9.747392670017344940e-02
-1.197366483852555369e-01
-8.753064340922542264e-02
-1.789957846306989425e-02
5.199961066264749410e-02
8.501113592936014596e-02
6.409485590199530403e-02
1.537725790727676248e-03
-6.773079126779817105e-02
-1.050956697467220757e-01
-8.920945824588297213e-02
-2.758331540848414642e-02
4.746756277602069002e-02
9.632674073298019835e-02
9.354048297037384496e-02
4.160865925574052521e-02
-3.037226107619913490e-02
-8.247802809157078752e-02
-8.558935743964052323e-02
-3.716228932090471365e-02
3.741210282026968814e-02
9.859501047234062177e-02
1.141594397238955838e-01
7.668803402430932059e-02
7.622554880145633593e-03
-5.433192606212542547e-02
-7.416441153395300634e-02
-3.951842918183602615e-02
3.262083071286019098e-02
1.051364362745244307e-01
1.408936478836066986e-01
1.228546420267769557e-01
6.329067933756768460e-02
-2.901389123657560631e-03
-3.715469640694154391e-02
-1.818400219082025315e-02
4.642464630009708604e-02
1.242696189912187860e-01
1.756375527181805729e-01
1.749685108938110745e-01
1.246484356842315622e-01
5.365396431577534181e-02
1.785863106192331351e-03
-1.960744718182805268e-03
4.483709000877431766e-02
1.166749626998953016e-01
1.739133061908162969e-01
1.842418624069431243e-01
1.401821791236635417e-01
6.314119366243968468e-02
-8.181254026772291632e-03
-3.874742988360700691e-02
-1.614106627453021359e-02
4.274506328713194997e-02
1.009172861818302402e-01
1.213921805339526760e-01
8.730772606213006715e-02
1.113133311986174052e-02
-7.202806402430333987e-02
-1.233801407238940134e-01
-1.214094814723449128e-01
-7.346973982027729666e-02
-1.173201967910219440e-02
2.431524143963477436e-02
9.327734091579012454e-03
-5.410613592379361070e-02
-1.368244392557226852e-01
-1.988623169703656046e-01
-2.110856277329824227e-01
-1.709609887760372149e-01
-1.039138505915341154e-01
-4.953820575412097582e-02
-4.013278825327420973e-02
-8.319800673218630260e-02
-1.573807047907199441e-01
-2.240641849019830434e-01
-2.483202669293612108e-01
-2.178654296626529319e-01
-1.497448595369489655e-01
-8.112054859078830782e-02
-4.915634461474477357e-02
-7.090304929981430804e-02
-1.340866251954355715e-01
-2.037924664278994713e-01
-2.414220652360228037e-01
-2.256459974874705510e-01
-1.639950615944870405e-01
-8.880614481589456377e-02
-3.972008649478510345e-02
-4.221852438951417819e-02
-9.383381949525321231e-02
-1.655068697348285600e-01
-2.173564029249623608e-01
-2.203112959566713158e-01
-1.718792827613553342e-01
-9.750378500118435376e-02
-3.677271089013674221e-02
-2.195437752408349597e-02
-6.049508311760227325e-02
-1.309657453046773334e-01
-1.946551620531386528e-01
-2.165263991793002774e-01
-1.841776538818984676e-01
-1.145309004585031848e-01
-4.462438826135869951e-02
-1.150196484342909387e-02
-3.210239910432866051e-02
-9.405166724575736437e-02
-1.623509564873867328e-01
-1.983363905998255516e-01
-1.806341414182970895e-01
-1.167526137556468419e-01
-3.902833770150773013e-02
1.287692614266364166e-02
1.344068033565702647e-02
-3.492851322229825750e-02
-1.032469329773747502e-01
-1.517231446854063748e-01
-1.513886905892842805e-01
-9.986531838194445676e-02
-2.272027989366076639e-02
4.032670709005917176e-02
5.686991350159190106e-02
1.932309975762190601e-02
-5.102317553834830044e-02
-1.155899845069748022e-01
-1.394609105045691577e-01
-1.103373816534833352e-01
-4.522249855517272016e-02
1.879037075749308283e-02
4.463127567761801529e-02
1.536648188193034947e-02
-5.659269162107732898e-02
-1.361777292034167808e-01
-1.846235501469143947e-01
-1.804256471532010297e-01
-1.309353982529923299e-01
-6.830987310149597147e-02
-3.201330720965042675e-02
-4.735717226822561132e-02
-1.117129809627614156e-01
-1.958727036575082792e-01
-2.598205223547525033e-01
-2.743674978682467125e-01
-2.369224327821981835e-01
-1.728505981345318798e-01
-1.216841332307235929e-01
-1.156590639665884823e-01
-1.622132200577286465e-01
-2.399322063328649945e-01
-3.101407616406262613e-01
-3.378560703568272983e-01
-3.107448169106087899e-01
-2.458078274932141427e-01
-1.801685320060530393e-01
-1.509581281988701673e-01
-1.752006238078498424e-01
-2.406008895030313233e-01
-3.122286935961277043e-01
-3.514750805655067478e-01
-3.370051575615878869e-01
-2.763491493116906894e-01
-2.018480894110010471e-01
-1.531513995490593194e-01
-1.557533848295267198e-01
-2.072028655804010744e-01
-2.784608140333458826e-01
-3.296696522784794414e-01
-3.317857594329934878e-01
-2.823486065956051783e-01
-2.068381985250614397e-01
-1.448845324491960795e-01
-1.288038973830940570e-01
-1.660960973536860785e-01
-2.353896546882750240e-01
-2.980325229166860268e-01
-3.190450152735085920e-01
-2.860767232195594589e-01
-2.160912871457543738e-01
-1.461555403162412836e-01
-1.133261850018371653e-01
-1.345372116130313378e-01
-1.973912016426160321e-01
-2.668475063685704640e-01
-3.041833913739878659e-01
-2.879517840476286672e-01
-2.255771154837540593e-01
-1.493054467680194897e-01
-9.870584219912298396e-02
-9.920988160340357687e-02
-1.483234191401176238e-01
-2.169853859757502612e-01
-2.653373792336120585e-01
-2.643559251576346192e-01
-2.116209640615578091e-01
-1.326722040024203020e-01
-6.721688958460357577e-02
-4.766369927278182872e-02
-8.161699361150928644e-02
-1.478187395086385525e-01
-2.077358111322695211e-01
-2.265094344080074151e-01
-1.919087085351889044e-01
-1.210122196856546900e-01
-5.099426194186097716e-02
-1.900885342494949837e-02
-4.207473442284252740e-02
-1.078643833276210356e-01
-1.813898573332365927e-01
-2.239616029504060135e-01
-2.141439615018836951e-01
-1.593489640172373600e-01
-9.178480351359621925e-02
-5.095632821206055874e-02
-6.220454384727688857e-02
-1.229192504674989361e-01
-2.038996631036956719e-01
-2.651267167142044578e-01
-2.773986633431575477e-01
-2.381032220646797093e-01
-1.725778626512314284e-01
-1.203218913724394962e-01
-1.135351103030837056e-01
-1.596171525374047440e-01
-2.371145754674998385e-01
-3.073131236752048023e-01
-3.351917484241423439e-01
-3.083802041709620134e-01
-2.438441612590376284e-01
-1.786740468513697833e-01
-1.499704710537968499e-01
-1.747293310378781328e-01
-2.406298249732932160e-01
-3.127184257205705142e-01
-3.523652313408062731e-01
-3.382166595861433311e-01
-2.777862987893920388e-01
-2.034003921398171433e-01
-1.546951978946724815e-01
-1.571532076836984482e-01
-2.083124113042990888e-01
-2.791236123857773199e-01
-3.297196033289385708e-01
-3.310479724597664708e-01
-2.806408869686630170e-01
-2.039733775738894195e-01
-1.406736583157237597e-01
-1.230602368593654017e-01
-1.586400367046499893e-01
-2.260545634595845788e-01
-2.866714197273480536e-01
-3.055375385938176591e-01
-2.703356821338604443e-01
-1.980679471004048176e-01
-1.258427838527059750e-01
-9.075901647476269929e-02
-1.097904608936783183e-01
-1.705745198073616853e-01
-2.380978463726796113e-01
-2.736555227105910149e-01
-2.558075793920712715e-01
-1.919744323232069338e-01
-1.143874080164778706e-01
-6.259127679781487097e-02
-6.198541310664083814e-02
-1.100373732866211374e-01
-1.776435462454958314e-01
-2.249004983903090393e-01
-2.227387307767401403e-01
-1.686924190440108884e-01
-8.825697907407106801e-02
-2.109819678146307442e-02
4.122035879912389067e-04
-3.129969574832122681e-02
-9.495409237915265754e-02
-1.520067265823098479e-01
-1.675998648079557451e-01
-1.295169761809358278e-01
-5.486508218574614321e-02
1.913901740920308236e-02
5.528577043715339479e-02
3.648991821859018381e-02
-2.499574236256923987e-02
-9.426293954312664480e-02
-1.327031811821143825e-01
-1.189596732426745213e-01
-6.051793267349496463e-02
1.034821732363665203e-02
5.407802709059286728e-02
4.528555321638930153e-02
-1.345235424981072736e-02
-9.295652145495941765e-02
-1.532178776738633286e-01
-1.650333504548726349e-01
-1.257785465513804324e-01
-6.076885757760613904e-02
-9.472591794866258574e-03
-4.050868407121807624e-03
-5.185835576301184302e-02
-1.313918596219006696e-01
-2.038840280337044508e-01
-2.342587528187377033e-01
-2.100900800670916779e-01
-1.482884768203581727e-01
-8.589061899277324053e-02
-5.994557948276373061e-02
-8.740060028414964322e-02
-1.558897434071001009e-01
-2.304185055594279719e-01
-2.723206616450562501e-01
-2.602111812432081894e-01
-2.015770314870133084e-01
-1.287224843282156195e-01
-8.126625973792847568e-02
-8.467762200023058738e-02
-1.364857554967377484e-01
-2.076373463602605163e-01
-2.582659644038881597e-01
-2.593248042644196172e-01
-2.083560193312541942e-01
-1.308483073998071289e-01
-6.644651645554873476e-02
-4.748824696710771121e-02
-8.150165608614551305e-02
-1.471514329112509623e-01
-2.058301933653779725e-01
-2.226117726739128000e-01
-1.852081988617261255e-01
-1.106541554329694005e-01
-3.609518529036610801e-02
1.327365155442475353e-03
-1.540850712376021225e-02
-7.399330569269152447e-02
-1.394696943321178384e-01
-1.731883835356879398e-01
-1.537604539873289600e-01
-8.864832543826513256e-02
-1.011234197027333082e-02
4.228960580536217373e-02
4.316264045546096273e-02
-4.938100058056713038e-03
-7.286872403039437729e-02
-1.206697759418795535e-01
-1.192028785997614887e-01
-6.592387906616328785e-02
1.375610868979392290e-02
8.025818900914191700e-02
1.012969712508830222e-01
6.938151859329480531e-02
5.868886770987832846e-03
-5.062725880174696186e-02
-6.518955450791974471e-02
-2.555325102421305422e-02
5.121015099999481207e-02
1.279055750242140688e-01
1.673303375079182032e-01
1.523902508017536128e-01
9.531281022903335953e-02
3.096463940670438064e-02
-2.103023250879187955e-03
1.739525999085887731e-02
8.189085831018499961e-02
1.590181420661545275e-01
2.091192445997546168e-01
2.067092129418792168e-01
1.542672750304142359e-01
8.087929705805577130e-02
2.646771054454800931e-02
2.015728919463483093e-02
6.450358597025424023e-02
1.341325914382664464e-01
1.895281109873172554e-01
1.984921435356878927e-01
1.536441933321350817e-01
7.647252069270213393e-02
5.740076123773779626e-03
-2.347137015544224770e-02
1.279295290350201952e-03
6.310563643297108227e-02
1.250031358617102184e-01
1.499620566739122973e-01
1.210804643653915491e-01
5.077419191125026598e-02
-2.590923291383723237e-02
-7.024890603288842794e-02
-6.080492654446300466e-02
-5.010573600213959200e-03
6.488120733123514672e-02
1.092997022644127958e-01
1.028196544038971483e-01
4.795164036028037868e-02
-2.621532350324239785e-02
-7.978277599976041357e-02
-8.367524726207835328e-02
-3.540965367180345935e-02
3.954678448699225357e-02
1.015665742431964419e-01
1.183252306450601199e-01
8.230358055944525519e-02
1.484205640712131513e-02
-4.545035171583678563e-02
-6.364897051723780730e-02
-2.747007200724265602e-02
4.604471182033643278e-02
1.197399080670758093e-01
1.564607688187362178e-01
1.391678480337180113e-01
8.014846962192190283e-02
1.433225576302910032e-02
-1.966552059287431098e-02
-4.965892051454756650e-04
6.432985857758509451e-02
1.425022725513613864e-01
1.944098384548658132e-01
1.946064236738723752e-01
1.456012774549793054e-01
7.650154924983060267e-02
2.724262478361973161e-02
2.695431090940031416e-02
7.818935567634430206e-02
1.555627576734739392e-01
2.195383862426628085e-01
2.378883351821183267e-01
2.031910935431439635e-01
1.368817493625904547e-01
7.765701578142342187e-02
6.051870156284512581e-02
9.781409659078105223e-02
1.725495121857244241e-01
2.476006621809199726e-01
2.858267588079542176e-01
2.701850845823234315e-01
2.129427713791738896e-01
1.489927897483385166e-01
1.168978604120126524e-01
1.379385637814513621e-01
2.045240150740500473e-01
2.842486720439918457e-01
3.373979527767333453e-01
3.384152963903180877e-01
2.896960012455157552e-01
2.202327172866410665e-01
1.698488641066498994e-01
1.675682167978080617e-01
2.158470830164588850e-01
2.892172233231859457e-01
3.480758483920595725e-01
3.601480057105949095e-01
3.179872453726969583e-01
2.430276968073829535e-01
1.739903838936919245e-01
1.459273184747628682e-01
1.712616518526901555e-01
2.331000741003948773e-01
2.944413041338446169e-01
3.182877555938177783e-01
2.877573437273617252e-01
2.152923784595836831e-01
1.359726317046673350e-01
8.855627785936735774e-02
9.452483131571214059e-02
1.464902385738906243e-01
2.122475639686440541e-01
2.522759894597633723e-01
2.412010043289524730e-01
1.815835473857868865e-01
1.025612953043190112e-01
4.407856368369807154e-02
3.525315089466568574e-02
7.860667913979826893e-02
1.487067857893600575e-01
2.059574105861379234e-01
2.180622573408101950e-01
1.775271707205696159e-01
1.057144599733145784e-01
4.125181803789193524e-02
1.907922405379472441e-02
5.149213585136237781e-02
1.214571272590159873e-01
1.918237371709629324e-01
2.254394844241409679e-01
2.052648956752186338e-01
1.435853204675324457e-01
7.532650853741304497e-02
3.909771930308764132e-02
5.623854337244020563e-02
1.192276986512104814e-01
1.957373400646608141e-01
2.461356623431473212e-01
2.449507737142088415e-01
1.946616771037156801e-01
1.243415234674978831e-01
7.388936784728608598e-02
7.239858121206096953e-02
1.223882065135672992e-01
1.984452020172274844e-01
2.610136125018721609e-01
2.778557299504058054e-01
2.415511063332540509e-01
1.735464493276198950e-01
1.125593774228634963e-01
9.362004242494888218e-02
1.291093959418452286e-01
2.020705416856559411e-01
2.754170435351731561e-01
3.120452464080074595e-01
2.949474131322905035e-01
2.364225535086486862e-01
1.713919806115267175e-01
1.384432172727815824e-01
1.588782135845920318e-01
2.251238860023994093e-01
3.047883130615289260e-01
3.581651441576245154e-01
3.596990212336212966e-01
3.117776689757703057e-01
2.433759211401377021e-01
1.942882846034127697e-01
1.934985591991128240e-01
2.434130147679906264e-01
3.185052854837331915e-01
3.791090990476171374e-01
3.928836883739919017e-01
3.523174473685878882e-01
2.787827496426487639e-01
2.109445966130523153e-01
1.838065450018357971e-01
2.097521053162255955e-01
2.718578161457328446e-01
3.331019052195437480e-01
3.564758162735066072e-01
3.250955979167071130e-01
2.514100926882964493e-01
1.705130643537035862e-01
1.211829493830981486e-01
1.249264474491846022e-01
1.743842735250296094e-01
2.373826035955764191e-01
2.744328984329868493e-01
2.601931472784886346e-01
1.972562970333660015e-01
1.147910905804211262e-01
5.277172682954076044e-02
4.034462754904924453e-02
8.005877541098217753e-02
1.465078063116698748e-01
2.001200965615763938e-01
2.086219975655108638e-01
1.645401045961360498e-01
8.925558950306405892e-02
2.141318480786361111e-02
-4.031767801131069806e-03
2.523002700603742265e-02
9.217753849319265669e-02
1.596711959106014156e-01
1.905677603568253498e-01
1.678351636406401060e-01
1.037641373328864608e-01
3.328367105774615586e-02
-4.995962033407380654e-03
1.026356523071823845e-02
7.153738413450010103e-02
1.464916407821793831e-01
1.954858548682401331e-01
1.930363813547617269e-01
1.416068116575283919e-01
7.025047596277098072e-02
1.884144726823976101e-02
1.644237920964387867e-02
6.553586510147718647e-02
1.406676232529715520e-01
2.022378091531895627e-01
2.179653761469164119e-01
1.803908542034435292e-01
1.109299336210988196e-01
4.828023411808349263e-02
2.746499632238075250e-02
6.087241024249133436e-02
1.315670145551626757e-01
2.024970836534594754e-01
2.366053035045683761e-01
2.169397225069886470e-01
1.558619195383467992e-01
8.835955224239566697e-02
5.308726549840772635e-02
7.141218990992331817e-02
1.358221768936507812e-01
2.139800713819257072e-01
2.662265595892845393e-01
2.670444016854157110e-01
2.188497259773735382e-01
1.506354162223290383e-01
1.022029536643471737e-01
1.025311848573298712e-01
1.540086877015086342e-01
2.310780697556260865e-01
2.940285214182976614e-01
3.104618055998318304e-01
2.727974394873948771e-01
2.023299352457789135e-01
1.376404321043278034e-01
1.136457978434278759e-01
1.426432062613594565e-01
2.076262394584704185e-01
2.714962828818828777e-01
2.971763171792990987e-01
2.677240890531449868e-01
1.955415363046988930e-01
1.156875871176014925e-01
6.691822252408559379e-02
7.073002389012505997e-02
1.197655150011636138e-01
1.818639037613465625e-01
2.175600029566647775e-01
2.015442839249617091e-01
1.364499007348382031e-01
5.149188749527341957e-02
-1.330513761047648347e-02
-2.874240350521817255e-02
7.781244815875866527e-03
7.090970259448835245e-02
1.211184384874652298e-01
1.261769472360266819e-01
7.865064042791708454e-02
-4.485380455445699133e-05
-7.123443270017178197e-02
-9.993605838525528029e-02
-7.381710540921895825e-02
-9.878466463072735348e-03
5.475729266263738848e-02
8.296077392936040962e-02
5.771044390199700502e-02
-8.695882209281372011e-03
-8.132561626780526742e-02
-1.215681987467218950e-01
-1.080880422458903728e-01
-4.841541140847588354e-02
2.510826877601850943e-02
7.283334373298264164e-02
6.926589297037014092e-02
1.685845325576442594e-02
-5.534738207618614819e-02
-1.074901750915644716e-01
-1.105213974396412474e-01
-6.197508232091651637e-02
1.267413182027828100e-02
7.380102047232744988e-02
8.909310672389823826e-02
5.105316202432097494e-02
-1.894621411985178763e-02
-8.225344006211615655e-02
-1.038907475339524017e-01
-7.151067918185405325e-02
-2.080370287153671290e-03
6.732968127451469109e-02
9.965910988360657252e-02
7.797015902678625099e-02
1.465605433755897032e-02
-5.524754412363670764e-02
-9.302398640693888832e-02
-7.723359319082767627e-02
-1.530949069990533359e-02
6.049257399120699236e-02
1.105934427181833601e-01
1.095518868938121920e-01
5.985383268424454561e-02
-9.445518684211322985e-03
-5.849061389380653952e-02
-5.825744871818705484e-02
-6.322047991217910612e-03
7.178268269989324102e-02
1.363580921908089105e-01
1.550042984069457952e-01
1.201240781236656424e-01
5.297926666245389438e-02
-7.897670026777880992e-03
-2.765371088360711604e-02
5.930936725459690084e-03
7.576136628711843679e-02
1.446425471818284514e-01
1.753967695339518629e-01
1.509804700621245055e-01
8.369704111986465966e-02
8.512636975707976728e-03
-3.590127372389136096e-02
-2.812245247234623768e-02
2.442881417970962227e-02
8.954126932090558655e-02
1.277119214396375546e-01
1.136060800915797975e-01
4.984411307621937348e-02
-3.435982525573120366e-02
-9.897068597036447202e-02
-1.147686027329796465e-01
-7.912146477602943762e-02
-1.734557159153688952e-02
3.108194224587161603e-02
3.398407174672381237e-02
-1.601587373218453514e-02
-9.744183579072866752e-02
-1.715576889019883033e-01
-2.033215979293613307e-01
-1.803438166626630257e-01
-1.195718265369404426e-01
-5.807916259079008714e-02
-3.295092061474452771e-02
-6.116910929982020961e-02
-1.304010101954329870e-01
-2.056836064278878551e-01
-2.483803752360244088e-01
-2.371342764874718179e-01
-1.794586355944787770e-01
-1.076824248158868014e-01
-6.144721449478615649e-02
-6.624292638950851630e-02
-1.196167554952613510e-01
-1.925302997348258549e-01
-2.451286259249660926e-01
-2.483729079566685538e-01
-1.998099907613578030e-01
-1.249305050011977891e-01
-6.337911289013228866e-02
-4.749163352408329597e-02
-8.479308511760939859e-02
-1.539436243046857500e-01
-2.163296330531369605e-01
-2.370165781793011073e-01
-2.037054618818923135e-01
-1.334167984585056810e-01
-6.327832626135249106e-02
-3.040934584342851188e-02
-5.180488410431946522e-02
-1.151230582457438145e-01
-1.853688784873846751e-01
-2.238511055998247679e-01
-2.091363164182923617e-01
-1.486421887556382271e-01
-7.458666670152014344e-02
-2.649006485734065053e-02
-2.971669866434156759e-02
-8.168984922229610701e-02
-1.532546269773829017e-01
-2.044521076854098618e-01
-2.061561045892885413e-01
-1.558458313819566232e-01
-7.896607389366346041e-02
-1.513850790994215878e-02
3.301025501590046374e-03
-3.119490424238541282e-02
-9.732998053833422092e-02
-1.565534865069656834e-01
-1.740111175045692959e-01
-1.374991966534852006e-01
-6.414616955515294039e-02
8.802394757499540368e-03
4.410224267761815586e-02
2.462893088193902902e-02
-3.740691762108627055e-02
-1.071405902034144875e-01
-1.460069501469183906e-01
-1.326910041531962903e-01
-7.471741725298419734e-02
-4.395582101508123396e-03
3.868245779035192622e-02
2.910428773177528572e-02
-3.057444396278034826e-02
-1.111902196575162427e-01
-1.727440283547563571e-01
-1.860374618682509862e-01
-1.484457727822103557e-01
-8.527943713453431385e-02
-3.599778823072494194e-02
-3.274947396659030896e-02
-8.287383105773588055e-02
-1.648501593328509929e-01
-2.398923156406172208e-01
-2.729051793568274542e-01
-2.514446869106106153e-01
-1.924051104932052725e-01
-1.328097410060465888e-01
-1.096978471988712123e-01
-1.400110168078410600e-01
-2.113820465030286644e-01
-2.888194915961257436e-01
-3.336643015655084143e-01
-3.245424775615829982e-01
-2.689554673117041106e-01
-1.992247504110132295e-01
-1.549880265490602427e-01
-1.617342778295255967e-01
-2.170120605804090885e-01
-2.917859970333541719e-01
-3.462052732784735021e-01
-3.512358324329976633e-01
-3.044295155956074361e-01
-2.312816745250639294e-01
-1.714409044491914669e-01
-1.572456883830956609e-01
-1.962220033536747343e-01
-2.670288676882612844e-01
-3.310492739166843168e-01
-3.533432322735087228e-01
-3.216048422195529888e-01
-2.528472391457455282e-01
-1.841915913162514018e-01
-1.527530250018380165e-01
-1.755264526130297376e-01
-2.401753906426135343e-01
-3.117167453685775191e-01
-3.514778613739893975e-01
-3.380497550476361246e-01
-2.788784214837675135e-01
-2.062109837680217439e-01
-1.595940391991237384e-01
-1.644112586034073842e-01
-2.180947391401258373e-01
-2.914851239757372814e-01
-3.446041122336060969e-01
-3.482908051576354413e-01
-2.999750620615600494e-01
-2.250392570024117578e-01
-1.630318865845988285e-01
-1.462077202727792014e-01
-1.820284576114980513e-01
-2.491107495086360146e-01
-3.088188921322678748e-01
-3.262188144080068741e-01
-2.890352375351824543e-01
-2.143359476856686319e-01
-1.393194919418710986e-01
-1.011991964249496778e-01
-1.170866394228408797e-01
-1.747777413276298264e-01
-2.394344293332438256e-01
-2.725381669504033932e-01
-2.528394435018911368e-01
-1.879451390172398317e-01
-1.102604635135984446e-01
-5.948310021205782672e-02
-6.113697584728061685e-02
-1.127800054674861080e-01
-1.853607261036827880e-01
-2.389875107142033772e-01
-2.445618543431583580e-01
-1.995490050646719915e-01
-1.293375266512228894e-01
-7.345140737244691687e-02
-6.408954230308096245e-02
-1.086267095374028047e-01
-1.855629954674974103e-01
-2.561188486752105087e-01
-2.851921964241418417e-01
-2.603192891709721901e-01
-1.983629952590515444e-01
-1.363046708513715177e-01
-1.111325420537970232e-01
-1.397298140378838704e-01
-2.096656299733019035e-01
-2.858817217205592565e-01
-3.296510123408037396e-01
-3.195320175861446899e-01
-2.629607957893944636e-01
-1.921969261398092654e-01
-1.468209558946697302e-01
-1.522705666836927374e-01
-2.060497993042860188e-01
-2.790862343857749561e-01
-3.314997973289376398e-01
-3.342348724597672960e-01
-2.848290899686553024e-01
-2.087704515739027822e-01
-1.457064963157312654e-01
-1.279803638593647319e-01
-1.631279517046477501e-01
-2.298231794595822497e-01
-2.894686687273538839e-01
-3.071485045938185388e-01
-2.705849281338705836e-01
-1.968228221004073575e-01
-1.230182898527078239e-01
-8.632427447476272164e-02
-1.037762468936837823e-01
-1.630808958073702852e-01
-2.293006753726685720e-01
-2.638104987105924781e-01
-2.452505413920726407e-01
-1.811168223231869878e-01
-1.037066340164701783e-01
-5.261528879781174339e-02
-5.327204310663471998e-02
-1.031490892866291642e-01
-1.731190362454937404e-01
-2.232248903903173987e-01
-2.243143777767374614e-01
-1.738120310440026961e-01
-9.708068007408460209e-02
-3.363582678147053473e-02
-1.568741741200808948e-02
-5.064281274831893692e-02
-1.170576583791616831e-01
-1.762315995823157677e-01
-1.931650808079566350e-01
-1.555187741809460067e-01
-8.029949018574870923e-02
-4.649011590798793336e-03
3.427092743715418055e-02
1.939418421858477015e-02
-3.703685336255570920e-02
-1.001539165431151734e-01
-1.314175271821139690e-01
-1.095677062426762272e-01
-4.221255467348646734e-02
3.822862732364434857e-02
9.203017409058882048e-02
9.362571621639521890e-02
4.540052175019129027e-02
-2.366419145495678861e-02
-7.375850467386714515e-02
-7.587423945487023480e-02
-2.757207155139269200e-02
4.566280942238033769e-02
1.042124392051326509e-01
1.157900545928786246e-01
7.294197523698989216e-02
-2.899593621909155039e-03
-7.301003303369590913e-02
-1.023283768187389503e-01
-7.841756106709360519e-02
-1.815252582036075424e-02
4.148772400722484932e-02
6.353131751723678500e-02
3.112485271585951896e-02
-4.325837840708602472e-02
-1.245062555594262932e-01
-1.738279716450561452e-01
-1.697102302432095811e-01
-1.195111734870048098e-01
-5.540850932822784236e-02
-1.689910073793282619e-02
-2.933704500022921158e-02
-9.014445749673509478e-02
-1.701698873602585371e-01
-2.294582034038922802e-01
-2.388836592644240087e-01
-1.959194543312664516e-01
-1.259954583998096067e-01
-6.870780845555013450e-02
-5.635529696710692149e-02
-9.643672208615233776e-02
-1.675962429112375363e-01
-2.312141443653695227e-01
-2.523596366739130348e-01
-2.187474368617280396e-01
-1.474219764329719740e-01
-7.554544229035974057e-02
-4.028261784455809680e-02
-5.868569612375104660e-02
-1.184822316926893854e-01
-1.847592473321161832e-01
-2.189198345356875297e-01
-1.996362059873242889e-01
-1.344409214382786544e-01
-5.567273097028555690e-02
-2.974208194638311431e-03
-1.828071544537651638e-03
-4.976632705805474066e-02
-1.177272260304029761e-01
-1.658239009418736587e-01
-1.649763805997658261e-01
-1.126803370661655646e-01
-3.436432531020859604e-02
3.040041100914084998e-02
4.936237225088168507e-02
1.509006659330566075e-02
-5.097697422899877262e-02
-1.101234458017453788e-01
-1.273157785079199744e-01
-9.016335702421494902e-02
-1.560715900000779130e-02
5.928809502420423483e-02
9.744548650791727551e-02
8.188805180175481868e-02
2.494833822903619672e-02
-3.841760059329360488e-02
-6.958803125087911767e-02
-4.722904000914863315e-02
2.111460731017146888e-02
1.030745970661525734e-01
1.589627225997538029e-01
1.632358849418799052e-01
1.182882500304169027e-01
5.309561105806866188e-02
7.448131544553551753e-03
1.031984019463400015e-02
6.410156097025196398e-02
1.432455894382642647e-01
2.080583629873158369e-01
2.261662535356908088e-01
1.900202163321466353e-01
1.209520916927042666e-01
5.758499312377500512e-02
3.488100984455751175e-02
6.518414129034831583e-02
1.315345364329571498e-01
1.968779988617000432e-01
2.241781036739124433e-01
1.965279613653934665e-01
1.263586339112524048e-01
4.875131108616445608e-02
2.477100967110193452e-03
9.040697455529489446e-03
6.108621239979522555e-02
1.264485873312328756e-01
1.656532182644196716e-01
1.533766714038984902e-01
9.223434136027247598e-02
1.142030949677016322e-02
-4.906420599976388935e-02
-6.004544526207919453e-02
-1.894808167178516078e-02
4.884590448698973575e-02
1.037867532432017736e-01
1.136199796450630128e-01
7.088872355945677328e-02
-3.011676592876514832e-03
-6.942436771583553046e-02
-9.338360851723799538e-02
-6.257115300723627149e-02
5.999673820322475384e-03
7.519591406706560566e-02
1.078799298187363004e-01
8.702426103371989352e-02
2.492323262192409905e-02
-4.349156523697775972e-02
-7.960809459287174206e-02
-6.208682920515326553e-02
1.548333577582595294e-03
7.896460855135913059e-02
1.305228244548652661e-01
1.307407576738734145e-01
8.208301145499190266e-02
1.360270324984380608e-02
-3.482850021637924620e-02
-3.415351109060080909e-02
1.810057667634201034e-02
9.646473467347145558e-02
1.613183892426556243e-01
1.803531231821208780e-01
1.460755035431456905e-01
7.986187136259320640e-02
2.036772178142473577e-02
2.575059562844636551e-03
3.883566659077085370e-02
1.121860661857104896e-01
1.855576661809180683e-01
2.218890798079540261e-01
2.042376145823252831e-01
1.449869463791766677e-01
7.915835174834948140e-02
4.544961541201499033e-02
6.527809278144999783e-02
1.311862860740475589e-01
2.108935070439895698e-01
2.647964217767325157e-01
2.674314413903242094e-01
2.212645952455288834e-01
1.553338642866432251e-01
1.094802241066507031e-01
1.127156807978072633e-01
1.674548660164566216e-01
2.481584683231723987e-01
3.151248933920520745e-01
3.359554017105956247e-01
3.030586213726991773e-01
2.377073808073853212e-01
1.784503678936933124e-01
1.601618184747619911e-01
1.950873078526799698e-01
2.661615481003923311e-01
3.362217971338427036e-01
3.681239475938177796e-01
3.448581597273634447e-01
2.787607484595973073e-01
2.048290977046784422e-01
1.617633688593678176e-01
1.710113263157107544e-01
2.251746725738881238e-01
2.920603579686417706e-01
3.321796264597627335e-01
3.202079233289537030e-01
2.587715813857890401e-01
1.770865323043211981e-01
1.151854406836991113e-01
1.022817228946649032e-01
1.409972411397960312e-01
2.060020777893575572e-01
2.578026675861366801e-01
2.642034193408108189e-01
2.178076717205714996e-01
1.400708599733169191e-01
6.970840103789353870e-02
4.174163405379452407e-02
6.854004985136052941e-02
1.331360692590134454e-01
1.984362661709443698e-01
2.273361084241408148e-01
2.028349806752201556e-01
1.372482894675350618e-01
6.552353453743348100e-02
2.628389430308396280e-02
4.087544137243881437e-02
1.017762746512080180e-01
1.766511030646585323e-01
2.258538893431535355e-01
2.238915017142098229e-01
1.732143031037180758e-01
1.028587874675213620e-01
5.267848584728716810e-02
5.171135021205315596e-02
1.024103225135650774e-01
1.792854950172029505e-01
2.426942075018829470e-01
2.603042349504063324e-01
2.245959783332561188e-01
1.569166493276449581e-01
9.588913742285068431e-02
7.645907342494873138e-02
1.109383769418433863e-01
1.823213566856305978e-01
2.534969475351713242e-01
2.873639164080059594e-01
2.669458181322921786e-01
2.046024835086737437e-01
1.353449426115103937e-01
9.787727027278207703e-02
1.136413075845906645e-01
1.752224630023969665e-01
2.504003330615466316e-01
2.996471001576307414e-01
2.975868762336223439e-01
2.467819679757726758e-01
1.763713331401400297e-01
1.262977486034138341e-01
1.256722161991120079e-01
1.770024147679883919e-01
2.548335574837526929e-01
3.195378790476278708e-01
3.387777733739923414e-01
3.050083103685899411e-01
2.395321206426286320e-01
1.809092726130394069e-01
1.640055340018356511e-01
2.010372793162237270e-01
2.748893411457077329e-01
3.483295312195417992e-01
3.841268102735063694e-01
3.651697069167086918e-01
3.036815976883217028e-01
2.345396203536871949e-01
1.963206473830986232e-01
2.103501734491832753e-01
2.691121445250272970e-01
3.403032645955939017e-01
3.843345834329860433e-01
3.757933522784898117e-01
3.172310880333896743e-01
2.378031615804233889e-01
1.774964308295418625e-01
1.654934655490485906e-01
2.044001234109603105e-01
2.688848393116891611e-01
3.194658725615748818e-01
3.239717105655113283e-01
2.750405665961566104e-01
1.941719375030439287e-01
1.201328588078654225e-01
8.800233219886893776e-02
1.102121700060193360e-01
1.698604064931898416e-01
2.299210259105830545e-01
2.533571293568251948e-01
2.232344186406564068e-01
1.519319113328662929e-01
7.445688705774838878e-02
2.948773396659329360e-02
3.842079323070507479e-02
9.377933013451932032e-02
1.632680167821771722e-01
2.072754788682393823e-01
2.003378373547727298e-01
1.449290966575306205e-01
7.010361696279471255e-02
1.572705426824107244e-02
1.084415820963648136e-02
5.790997510149450272e-02
1.314327022529691302e-01
1.917643871531882482e-01
2.065645971469213804e-01
1.683028982034270316e-01
9.831322062110159354e-02
3.520270211808537719e-02
1.389839932237962872e-02
4.669014924248902909e-02
1.165458345551373814e-01
1.863228876534576417e-01
2.188831825045670643e-01
1.972082675069755653e-01
1.336117765383495748e-01
6.305597424239797744e-02
2.419596849841303132e-02
3.842728290993367712e-02
9.829461689364837884e-02
1.715452413819235078e-01
2.186299595892770009e-01
2.141645876854165742e-01
1.607176349773973278e-01
8.744925722233168330e-02
3.433808266435800505e-02
3.054452585733560821e-02
7.863741070150644108e-02
1.532322997556236355e-01
2.147779534182843730e-01
2.310162195998278489e-01
1.944813234873972452e-01
1.265516842457817537e-01
6.585704810434395151e-02
4.732455284342720891e-02
8.322195026134103502e-02
1.564739734584679187e-01
2.298754128818648046e-01
2.662078061793003991e-01
2.483565960531469441e-01
1.885256453047011727e-01
1.215560701176219838e-01
8.597290252408580635e-02
1.030354958901237572e-01
1.651497100011612151e-01
2.399251627613247506e-01
2.876800689566640368e-01
2.829064469249727987e-01
2.280614667348614677e-01
1.522100944952969603e-01
9.525529238951467581e-02
8.630419149478107954e-02
1.278970308158736691e-01
1.946472995944641959e-01
2.470294684874639324e-01
2.528396062360268592e-01
2.046947864279188845e-01
1.240842381954710000e-01
4.977500229982956270e-02
1.685570761474318446e-02
3.777676959076266272e-02
9.566308553690271166e-02
1.535228696626521616e-01
1.743597149293599768e-01
1.412848109019983478e-01
6.672628379074410643e-02
-1.425728126780348437e-02
-6.293538774672137459e-02
-5.786010224589170636e-02
-6.458220408499658338e-03
5.902230177601631989e-02
9.901424673297451462e-02
8.809431997038061346e-02
2.877345525576649465e-02
-4.986064807620522316e-02
-1.079125390915733479e-01
-1.163112994396419964e-01
-7.257944632091870019e-02
-2.190176179724837718e-03
5.522330947233763249e-02
6.733149772389840360e-02
2.661119002432275199e-02
-4.559992111984955548e-02
-1.106940680621148199e-01
-1.337462605339539701e-01
-1.024709471818558565e-01
-3.390640228713413806e-02
3.479684227452875533e-02
6.649052288360610130e-02
4.414307802678755360e-02
-1.994898266241553614e-02
-9.084563412365334600e-02
-1.299201054069383798e-01
-1.158117761908286358e-01
-5.601696969992906588e-02
1.716581399120409648e-02
6.413889271817524440e-02
5.946946589382300780e-02
5.680332684268457610e-03
-6.810793868423040132e-02
-1.219473678938053918e-01
-1.266972337181874186e-01
-7.979643299123929945e-02
-6.625004300109885169e-03
5.328183219080724620e-02
6.769269640694632051e-02
2.917817212368650770e-02
-4.083881833754386681e-02
-1.036774980267613500e-01
-1.243548908836083072e-01
-9.054430627455799241e-02
-1.926065171286201957e-02
5.235098118182661409e-02
8.713036753395174416e-02
6.801754206214101484e-02
7.265318119866890495e-03
-6.024403602428957810e-02
-9.595426872389045680e-02
-7.858661547235903932e-02
-1.572895882029349407e-02
6.022066332088348711e-02
1.095587424396297915e-01
1.067421400915909563e-01
5.418091707620030506e-02
-1.911693825572843841e-02
-7.331284897036299819e-02
-7.936882973298672872e-02
-3.481590877603230744e-02
3.488843640846068378e-02
9.015017724587029435e-02
9.870122674672929253e-02
5.310048526781758343e-02
-2.521363879070352351e-02
-9.751658290197214030e-02
-1.287533759293622015e-01
-1.064983776626489131e-01
-4.764273253694294163e-02
1.081428140920809994e-02
3.187705138525458171e-02
-1.334520299818536815e-03
-7.637620819543042283e-02
-1.581665804278857279e-01
-2.079462462360189834e-01
-2.042330734874738263e-01
-1.544151385945032040e-01
-9.069808181590890972e-02
-5.260418949479329920e-02
-6.551023338951707242e-02
-1.268582414952589277e-01
-2.075141577348234567e-01
-2.675380599249552738e-01
-2.778174899566698830e-01
-2.358371967613600018e-01
-1.670369710012002129e-01
-1.110213028901451682e-01
-1.000957195240827491e-01
-1.417640471175888872e-01
-2.146737153046606450e-01
-2.802064940531208137e-01
-3.034312321793004030e-01
-2.720604048818940912e-01
-2.031343434585082264e-01
-1.338093892613703428e-01
-1.012429538434286014e-01
-1.224786491043177994e-01
-1.852346412457412106e-01
-2.545882044873641892e-01
-2.919326795998247737e-01
-2.759306334183058707e-01
-2.141050237556627045e-01
-1.387849877015417399e-01
-8.960361885733436615e-02
-9.203477566434047075e-02
-1.436028852222936969e-01
-2.152403539773593832e-01
-2.670561816854092330e-01
-2.699676295892893263e-01
-2.214685633819588051e-01
-1.469863678936874363e-01
-8.609140190994346575e-02
-7.103426849840517587e-02
-1.092453712423649415e-01
-1.792835855383090871e-01
-2.424309845069789748e-01
-2.636499085045693747e-01
-2.305440506534869871e-01
-1.600473045551777107e-01
-8.921641724250226058e-02
-5.512003832238196455e-02
-7.472700511805932533e-02
-1.356968636210611479e-01
-2.030656732034312184e-01
-2.382034621469135693e-01
-2.197673251532097916e-01
-1.552920552530082654e-01
-7.713499910149040906e-02
-2.497266220964881878e-02
-2.433620626822359523e-02
-7.282006796275682092e-02
-1.414384816575142423e-01
-1.903934583547552684e-01
-1.907057078682517504e-01
-1.399817897822125401e-01
-6.376917013451509353e-02
-1.762958230726641151e-03
1.366062803341445975e-02
-2.505040205771541517e-02
-9.656711333287132382e-02
-1.622692006406303844e-01
-1.871975273568275977e-01
-1.590114669106124645e-01
-9.467486549320811018e-02
-3.124662300604874599e-02
-5.768592198871352883e-03
-3.515375080783941786e-02
-1.069777245030489182e-01
-1.861664675961237081e-01
-2.339562285655036322e-01
-2.288495955615965083e-01
-1.782094803117283410e-01
-1.142075964109957320e-01
-7.632481254906098300e-02
-8.989038482952449449e-02
-1.522941745803856051e-01
-2.343466900333518177e-01
-2.960506032784724351e-01
-3.082353514329984612e-01
-2.683280915956293700e-01
-2.017126905250665458e-01
-1.479404594492049752e-01
-1.392674553830909323e-01
-1.831524373536542460e-01
-2.582026126882813188e-01
-3.257646219166827062e-01
-3.508773712735088757e-01
-3.212285052195713586e-01
-2.538385021457482127e-01
-1.858486533162532761e-01
-1.544058620018381456e-01
-1.765473356130135008e-01
-2.399883266426109940e-01
-3.098059713685570316e-01
-3.473956503739846768e-01
-3.314237570476495920e-01
-2.694186324837480884e-01
-1.937162277680239408e-01
-1.439578831991245311e-01
-1.456272466033965429e-01
-1.962604361401234787e-01
-2.668041989757349297e-01
-3.173856942336050757e-01
-3.189455651576432182e-01
-2.690075380615423728e-01
-1.930361110024362836e-01
-1.306460335846124088e-01
-1.141385552727745001e-01
-1.509987316115143641e-01
-2.198407855086335072e-01
-2.819988371322663112e-01
-3.024797134080084993e-01
-2.689199655351842688e-01
-1.982712336856711777e-01
-1.275903859418729969e-01
-9.392735942495131218e-02
-1.142137454228537435e-01
-1.760550563276047364e-01
-2.444193643332233379e-01
-2.805983449503987592e-01
-2.631643885018802864e-01
-1.995652860172422993e-01
-1.220728255136006857e-01
-7.028263321206573710e-02
-6.965235184727952555e-02
-1.177124024674837122e-01
-1.854242111036804308e-01
-2.329495767141926410e-01
-2.312827293431519715e-01
-1.780183610646941528e-01
-9.870727765124738540e-02
-3.306346237246061970e-02
-1.349751230308479655e-02
-4.761074553740074489e-02
-1.141372604674949220e-01
-1.745316536751943537e-01
-1.939193314241418054e-01
-1.600513491709740499e-01
-8.998748425905411796e-02
-2.088348885139021394e-02
1.012450194620423405e-02
-1.396509503786780293e-02
-8.080834297327682547e-02
-1.554017167205388184e-01
-1.990410373408073308e-01
-1.902770565861460761e-01
-1.365092577893969872e-01
-6.993428013983171709e-02
-3.004631589467056385e-02
-4.217656968369168369e-02
-1.037059653042836788e-01
-1.854258693857514795e-01
-2.473104053289459647e-01
-2.601519664597681247e-01
-2.213332359686775164e-01
-1.561873835739276128e-01
-1.042101103157204861e-01
-9.759835185936431567e-02
-1.437497127046457324e-01
-2.212097454595572388e-01
-2.912644387273519153e-01
-3.188944885938186924e-01
-2.917330301338724730e-01
-2.267506721004330650e-01
-1.610441238526931773e-01
-1.317213584747629063e-01
-1.557864638936676815e-01
-2.209274468073452458e-01
-2.922000223726845536e-01
-3.309837657105920705e-01
-3.159345583920740164e-01
-2.545751543232119274e-01
-1.792404410164724349e-01
-1.295747377978125892e-01
-1.310681401066336460e-01
-1.812660492866056960e-01
-2.511267152455120555e-01
-3.007904713903163940e-01
-3.012123357767452769e-01
-2.499313890440253427e-01
-1.724285700740646188e-01
-1.083365287814592598e-01
-8.997632841200764453e-02
-1.248551617483169007e-01
-1.916119993791587095e-01
-2.516083445823136810e-01
-2.698805358079568451e-01
-2.340955381809479152e-01
-1.612344191857280618e-01
-8.838019459078359785e-02
-5.260327356284745515e-02
-7.084789478139914831e-02
-1.307228053625752728e-01
-1.971891235431315059e-01
-2.315216461821135441e-01
-2.122672732426775788e-01
-1.468418566735115727e-01
-6.748144267635736160e-02
-1.374473090941201459e-02
-1.105347678360375785e-02
-5.690498524978523237e-02
-1.222316654549756021e-01
-1.671713536738564376e-01
-1.626999794548780742e-01
-1.063999155514154804e-01
-2.381588257759954808e-02
4.533762320513123889e-02
6.864233459287906458e-02
3.848133523701029179e-02
-2.390397062190667554e-02
-8.000249803369434420e-02
-9.498413181873915923e-02
-5.665384406711269916e-02
1.786690217966001304e-02
9.135507200722296772e-02
1.266041385172351208e-01
1.065419127158749452e-01
4.344451059289389933e-02
-2.774686155942426846e-02
-6.838264464505570961e-02
-5.705887124322384096e-02
-1.209946487006684918e-03
6.694335467176987242e-02
1.078934762620663290e-01
9.630632799978085246e-02
3.480807850324608987e-02
-4.737628736025620985e-02
-1.101962744038815362e-01
-1.244126172644325207e-01
-8.737064633124813628e-02
-2.436171039981213995e-02
2.516368054444845237e-02
2.905620203289707715e-02
-2.003253408615032760e-02
-1.005978949112350529e-01
-1.738752793653679518e-01
-2.047949586739153394e-01
-1.809404668617126954e-01
-1.192343644329745961e-01
-5.672762729037822416e-02
-3.048555984456043089e-02
-5.747343412376396121e-02
-1.253449806926869026e-01
-1.991266563321141270e-01
-2.401739605356835172e-01
-2.271237809873249969e-01
-1.674847734382811648e-01
-9.358245297028786047e-02
-4.505636019464688558e-02
-4.739627554454629854e-02
-9.815153505805240819e-02
-1.682881960303795332e-01
-2.179578029418629548e-01
-2.181294845997589493e-01
-1.663588210661678390e-01
-8.814532431021111780e-02
-2.314227699087345602e-02
-3.693572749117884912e-03
-3.733157340669232549e-02
-1.027229772289962872e-01
-1.612600368017292896e-01
-1.780136135079180282e-01
-1.406899050242168547e-01
-6.631468500001037880e-02
7.978759024185044790e-03
4.506511650791850815e-02
2.794274880175640074e-02
-3.105366377096132474e-02
-9.693683259327318114e-02
-1.310237352508779596e-01
-1.118898340091500493e-01
-4.696218068983104565e-02
3.153246806612967912e-02
8.406714259975998915e-02
8.527445194188092159e-02
3.773241003041922365e-02
-2.939839594190788580e-02
-7.614959445545438355e-02
-7.338294080536683639e-02
-1.856429502975032522e-02
6.287489743823902744e-02
1.313251789873144115e-01
1.544610225356912170e-01
1.247429753321486479e-01
6.347282769272931391e-02
9.204306123762773240e-03
-3.207541155442666936e-03
3.843958929034639593e-02
1.170134934329310900e-01
1.952615868617147143e-01
2.359280776739122176e-01
2.218713263653950829e-01
1.652784719112774525e-01
1.009843790861671420e-01
6.751849596711063939e-02
8.615544645552807024e-02
1.493271823997699976e-01
2.246798283312504974e-01
2.725776242644188385e-01
2.675667714038995615e-01
2.121650393602959317e-01
1.355025444967520032e-01
7.755026200023718008e-02
6.748469373791997350e-02
1.079152783281920047e-01
1.735230294869878620e-01
2.248468992432003932e-01
2.297432086450634514e-01
1.808841485594588072e-01
9.980841840710405477e-02
2.532664228415218433e-02
-7.435009517238203025e-03
1.400522599274525715e-02
7.279730082034324701e-02
1.319682330670809145e-01
1.545343498187360942e-01
1.236138030337214921e-01
5.163628162192716864e-02
-2.634298223697575242e-02
-7.160119559287131397e-02
-6.270190620515467272e-02
-7.086696422397297662e-03
6.297872955137737150e-02
1.079067014548644315e-01
1.022508836738744709e-01
4.849655245501537093e-02
-2.429684475017500345e-02
-7.626439721637820468e-02
-7.836746409060160734e-02
-2.816202932368074008e-02
4.884452267346947596e-02
1.129845002426542039e-01
1.318940621821212966e-01
9.801634654316609963e-02
3.265649236257317511e-02
-2.560889621857367904e-02
-4.188437043715553809e-02
-3.912079409248120365e-03
7.124410318573112799e-02
1.464104391809161743e-01
1.844182118079538690e-01
1.682185525823408634e-01
1.100941743791791216e-01
4.497506274835152973e-02
1.148180241201543494e-02
3.097271478143591439e-02
9.595312707406755681e-02
1.741302030439873250e-01
2.259159397767316890e-01
2.258911503903344720e-01
1.765959652455100781e-01
1.071715332866455261e-01
5.758893310665177956e-02
5.701359579779899378e-02
1.080321300164547860e-01
1.852901463231699519e-01
2.492775483920506852e-01
2.677865347105998772e-01
2.334084563726828154e-01
1.675830188073877958e-01
1.090030218936949430e-01
9.265835147475998124e-02
1.308773558526950542e-01
2.066414981003897311e-01
2.827967371338408475e-01
3.221685075938157672e-01
3.076770697273650823e-01
2.515500304595997827e-01
1.886391307046804411e-01
1.574652658593721499e-01
1.792682103157218765e-01
2.464192475738856414e-01
3.264797039686395119e-01
3.797076814597545869e-01
3.805257153289450800e-01
3.313150303857914092e-01
2.610613743043235790e-01
2.095885176837098962e-01
2.059275388946643637e-01
2.525484621397937612e-01
3.240026607893550237e-01
3.807124215861228400e-01
3.904328543408069896e-01
3.457520647205735709e-01
2.681426439733194389e-01
1.963671630378951427e-01
1.655212300537960424e-01
1.880725028513586528e-01
2.471719882590109052e-01
3.058615311709425022e-01
3.271847164241405981e-01
2.942980316752217829e-01
2.196789864675375847e-01
1.384381075374355452e-01
8.935879830308443572e-02
9.394152137243741429e-02
1.448106216512055067e-01
2.097670480646562918e-01
2.492894503431527520e-01
2.379966437142109204e-01
1.784373401037204210e-01
9.973227346752373823e-02
4.180481984728828815e-02
3.374841021205235436e-02
7.805739351356283384e-02
1.492697520172004966e-01
2.077579525018815598e-01
2.211931269504068265e-01
1.820483763332581828e-01
1.116540123276474755e-01
4.860723842285225027e-02
2.781969442494854061e-02
6.156111094184152366e-02
1.327752536856280363e-01
2.042919475351694381e-01
2.389422354080057986e-01
2.196733791322937890e-01
1.587604575086762615e-01
9.112172761151246525e-02
5.536159927278254400e-02
7.281737958458928128e-02
1.359679490023945059e-01
2.124878560615443834e-01
2.627495661576298991e-01
2.612869822336234549e-01
2.105861809757750558e-01
1.397285231401423911e-01
8.862231560341493619e-02
8.637114419911126606e-02
1.355051507679861655e-01
2.106231804837502275e-01
2.721817680476265044e-01
2.879559753739928118e-01
2.505382123685919726e-01
1.813883696426312198e-01
1.192381066130410450e-01
9.913287100183552913e-02
1.334701983162218664e-01
2.053107181457276276e-01
2.775858432195399406e-01
3.132093182735062320e-01
2.951896139167102806e-01
2.358401276882789166e-01
1.700941443536892472e-01
1.365481383830990936e-01
1.565093984491819912e-01
2.224061195250465195e-01
3.018432395955916725e-01
3.551066164329852448e-01
3.566286222784908477e-01
3.087810910333706471e-01
2.405208185804257881e-01
1.916237638295429924e-01
1.910560565490477813e-01
2.412081994109581129e-01
3.165406303116867215e-01
3.773767325615736135e-01
3.913682155655118788e-01
3.509984715961587676e-01
2.776368265030464411e-01
2.099464428078671174e-01
1.829294441988688069e-01
2.089676800060174255e-01
2.711355024931872970e-01
3.324084159105812342e-01
3.557747223568250572e-01
3.243470866406580333e-01
2.505710433328688369e-01
1.695375570577504765e-01
1.200233539665937765e-01
1.235351032307037272e-01
1.727155871345169014e-01
2.353952667821749556e-01
2.720919188682386358e-01
2.574715433547738463e-01
1.941365116575330396e-01
1.112661759627971148e-01
4.884614526824217207e-02
3.603443520963572899e-02
7.539103410149228246e-02
1.415192122529446705e-01
1.948549921531869122e-01
2.031300241469261580e-01
1.588736902034475207e-01
8.346736162110417190e-02
1.555350311810153874e-02
-9.916929677620478500e-03
1.935935124248723549e-02
8.635421355515762731e-02
1.539203166534558465e-01
1.849061465045683805e-01
1.622707465069772592e-01
9.829515753837470005e-02
2.789784224240010602e-02
-1.032200250158223087e-02
4.962882909920168784e-03
6.621722489364589848e-02
1.410979613819013656e-01
1.899568225892762363e-01
1.873036466854177129e-01
1.355963559773785965e-01
6.388296322233411040e-02
1.203215666434942488e-02
9.100980857334864393e-03
5.756638770148431866e-02
1.319688577556212272e-01
1.927040804182709177e-01
2.074875105998326141e-01
1.688575014873993640e-01
9.822986224580687598e-02
3.430613610434560257e-02
1.211870684342705728e-02
4.407087326135579464e-02
1.132481404584654155e-01
1.826248298818795857e-01
2.151734291793002685e-01
1.939738510531631155e-01
1.314197353047037442e-01
6.252921611764247767e-02
2.598421852409059374e-02
4.317449489012242791e-02
1.066045930011367548e-01
1.839472337613225483e-01
2.355457399566633081e-01
2.358784049249642578e-01
1.873504717348638549e-01
1.189386184952782588e-01
7.042404538951577142e-02
7.076232049477330921e-02
1.223165458158714802e-01
1.995021975944397674e-01
2.625801254874504109e-01
2.791229972360274036e-01
2.415209724279393788e-01
1.710393791954735732e-01
1.062308982998312334e-01
8.198558461474447778e-02
1.105767255907608299e-01
1.749783045369229517e-01
2.380775256626503356e-01
2.627892889293584333e-01
2.321694309019999847e-01
1.586236897907692678e-01
7.721974073218024204e-02
2.672641125327915312e-02
2.865647375409480224e-02
7.567138059149793039e-02
1.356314027760141538e-01
1.690938927329808106e-01
1.507726419703817322e-01
8.332422525574777195e-02
-4.013393076202804999e-03
-7.119356609156254900e-02
-8.899657943964273121e-02
-5.480147132094080609e-02
6.054409820294766320e-03
5.406452147233632710e-02
5.701595472390320885e-02
7.491496024324841019e-03
-7.307640111984697873e-02
-1.459971640621276490e-01
-1.762756505339540536e-01
-1.515693311818410716e-01
-8.887290028713665246e-02
-2.530653172548961993e-02
1.999213883605993614e-03
-2.398132597319627135e-02
-9.095664966245879668e-02
-1.640018831236512153e-01
-2.045149424069335753e-01
-1.911689081908299337e-01
-1.315025196999108914e-01
-5.786545300877816295e-02
-9.915732281825503924e-03
-1.315625110618552640e-02
-6.514449131577211560e-02
-1.368502146842068279e-01
-1.884247848938042647e-01
-1.908338497181951976e-01
-1.416267739912414891e-01
-6.629438730011230629e-02
-4.478684809206268103e-03
1.149075340694682978e-02
-2.590051587629298158e-02
-9.529697433756385838e-02
-1.580635540267597006e-01
-1.792378348836069779e-01
-1.464859762745598093e-01
-7.678643271288726480e-02
-7.217926818175193771e-03
2.515511753395019423e-02
3.396196062142697869e-03
-6.009393188013052722e-02
-1.302650730242690957e-01
-1.683787147238899606e-01
-1.529661584723725487e-01
-9.142513482027389560e-02
-1.597097567911870408e-02
3.386068643963606462e-02
3.267290509159209710e-02
-1.700587192377614465e-02
-8.608220325572601972e-02
-1.346687569703521881e-01
-1.337177057329874685e-01
-8.078986477603448957e-02
-1.411473591563756208e-03
6.471761124586897229e-02
8.518935574673407174e-02
5.239222526780127481e-02
-1.243204979070095320e-02
-7.077689790198496422e-02
-8.782099292936230983e-02
-5.138170566266730965e-02
2.140416946305455370e-02
9.329591340918970410e-02
1.270673273852544749e-01
1.056247367001831583e-01
4.122131180459469302e-02
-3.122542942788363723e-02
-7.308945123601420790e-02
-6.298931148746293729e-02
-8.380274594505635749e-03
5.849818618410881216e-02
9.812222750520596670e-02
8.514383961049375171e-02
2.217747850474346277e-02
-6.156151673479989123e-02
-1.260303059249541224e-01
-1.419953759566706386e-01
-1.068059877613821151e-01
-4.575564100120263489e-02
1.704797109841310609e-03
3.427489475913494954e-03
-4.793270611758677219e-02
-1.308664403046806424e-01
-2.066033210531191544e-01
-2.400671211793019011e-01
-2.188344908818958823e-01
-1.598210164585334436e-01
-1.000708392613721409e-01
-7.664271584342871591e-02
-1.064956331043016569e-01
-1.772772182457386658e-01
-2.540079884873436833e-01
-2.980377705998284998e-01
-2.879982014183072314e-01
-2.313932797556430832e-01
-1.605445017015439402e-01
-1.150878178573421784e-01
-1.205094296643393070e-01
-1.743548222222701671e-01
-2.475859989773569747e-01
-3.003506436854080919e-01
-3.036147875892830639e-01
-2.549321813819609983e-01
-1.798018948937118444e-01
-1.178778659099326276e-01
-1.015052934984046890e-01
-1.382181472423812674e-01
-2.066849325383065539e-01
-2.683000745069628046e-01
-2.881373535045695378e-01
-2.539069976535053841e-01
-1.826401575551802603e-01
-1.114770972425041112e-01
-7.755205532238070021e-02
-9.787783711805765618e-02
-1.601332386210360392e-01
-2.293466332034291288e-01
-2.668523881469130887e-01
-2.512439921531989251e-01
-1.899655632530106719e-01
-1.152585441015125389e-01
-6.666130420964959391e-02
-6.954881826821279756e-02
-1.213463959627544275e-01
-1.928920606575118546e-01
-2.442108503547638365e-01
-2.461522968682525181e-01
-1.961641227822346623e-01
-1.196536561345175470e-01
-5.620050823072797463e-02
-3.809525596658928925e-02
-7.283831805771333323e-02
-1.390862393328462232e-01
-1.982429586406287136e-01
-2.154126713568291773e-01
-1.783560169106143123e-01
-1.041734484932106547e-01
-3.009197700603401249e-02
6.651987801128508848e-03
-1.106941080782328224e-02
-7.106012850304636863e-02
-1.384807015961216359e-01
-1.748010345655074127e-01
-1.587496305615979098e-01
-9.790130631170927689e-02
-2.462006641099795390e-02
2.144535545093118056e-02
1.482609517047661640e-02
-4.197647358040456494e-02
-1.198495200333705712e-01
-1.788402622784713292e-01
-1.897915464330062751e-01
-1.501145985955921192e-01
-8.515034952506898847e-02
-3.438286344919415372e-02
-2.997952938309042525e-02
-7.929209135367058792e-02
-1.608056286882787456e-01
-2.357329059166665686e-01
-2.689705892735090309e-01
-2.480590352195897741e-01
-1.898695041457280075e-01
-1.313950533162551171e-01
-1.096380390018397571e-01
-1.414972526130118813e-01
-2.145578836426084712e-01
-2.937772853685733931e-01
-3.404428493739841688e-01
-3.331259380476387921e-01
-2.792736524837505785e-01
-2.111549377680460582e-01
-1.683583471991252911e-01
-1.763285626033857523e-01
-2.325758871401422401e-01
-3.080336179757325876e-01
-3.628269802335942762e-01
-3.679053031576439703e-01
-3.208107960615644849e-01
-2.470354650024166876e-01
-1.862299155846137699e-01
-1.707390682727782383e-01
-2.080990656115123127e-01
-2.769823435086084529e-01
-3.387882321322646106e-01
-3.585958194080100525e-01
-3.241210065351695646e-01
-2.524015556856737397e-01
-1.805862339418914386e-01
-1.458207584249514577e-01
-1.651335104228376371e-01
-2.262240233276247847e-01
-2.941471353332212879e-01
-3.302690509504025429e-01
-3.132191785018816343e-01
-2.504796930172668024e-01
-1.743297865136029245e-01
-1.243424762120735605e-01
-1.259214468472881487e-01
-1.765122204674813566e-01
-2.469624981036569467e-01
-2.972952667141915417e-01
-2.983461943431597874e-01
-2.475383500646764490e-01
-1.702454176512498696e-01
-1.060066463724498309e-01
-8.706810930308431229e-02
-1.208841555373803001e-01
-1.860658804674923950e-01
-2.439739516751782689e-01
-2.596725154241405487e-01
-2.208860811709759120e-01
-1.446832712590793990e-01
-6.826378185139207744e-02
-2.884173005379739307e-02
-4.352881003788067193e-02
-1.001205579732743212e-01
-1.637786367205551763e-01
-1.959852463408068846e-01
-1.754934455861596465e-01
-1.099151927893994712e-01
-3.166374913985388340e-02
1.955202410533568580e-02
1.819414731630940307e-02
-3.331163430430245098e-02
-1.059315643857491607e-01
-1.597919823289352115e-01
-1.658117094597688634e-01
-1.214720829686797426e-01
-5.217609857390809180e-02
2.539791684278105977e-03
1.046649514064040831e-02
-3.577836670464371732e-02
-1.146995534595321581e-01
-1.875190047273648242e-01
-2.191327485938188713e-01
-1.970715591338578210e-01
-1.381891741004356577e-01
-7.945424685271162968e-02
-5.783885947476305467e-02
-9.020666789366606209e-02
-1.641038078073652762e-01
-2.444455763726825215e-01
-2.924751917105872789e-01
-2.867186163920754094e-01
-2.345771553232364470e-01
-1.682743140164547901e-01
-1.273542337978134098e-01
-1.372188231066422404e-01
-1.953377992866033863e-01
-2.726064392454886076e-01
-3.291147473903153209e-01
-3.357798017767461007e-01
-2.901147680440077092e-01
-2.175863080740670918e-01
-1.578240157814728706e-01
-1.431566154120071932e-01
-1.811090327482964835e-01
-2.503474553791787405e-01
-3.122698125823120674e-01
-3.319582938079556067e-01
-2.971356121809498041e-01
-2.248488511857533456e-01
-1.522572775907855003e-01
-1.165172665628476378e-01
-1.346675867814120242e-01
-1.944181863625727702e-01
-2.608353365431110849e-01
-2.952993201821130786e-01
-2.764583772426911779e-01
-2.118205276734689002e-01
-1.336996466763596403e-01
-8.171301690940581397e-02
-8.131742378360272416e-02
-1.300180352498034320e-01
-1.987249744549732799e-01
-2.475215396738553730e-01
-2.472962034548718824e-01
-1.955121555513767151e-01
-1.175663595776240966e-01
-5.300195179487017516e-02
-3.404877240711624842e-02
-6.812564376302387981e-02
-1.337907856219041902e-01
-1.923373870337072578e-01
-2.087508288187393535e-01
-1.706692480671311574e-01
-9.507113082034257534e-02
-1.906605499279549754e-02
2.021843751723637062e-02
5.750683715876531155e-03
-5.019364940708107015e-02
-1.127154755594222402e-01
-1.432479536450510238e-01
-1.205079872432252286e-01
-5.208544848700918939e-02
2.961318767178753447e-02
8.486938426206550035e-02
8.811818999979156852e-02
4.174087350324842682e-02
-2.529022236023273362e-02
-7.317822640389018418e-02
-7.293145326443334353e-02
-2.212997533127034760e-02
5.371905560018534753e-02
1.149735485444348532e-01
1.293211270328974982e-01
8.928190191385165786e-02
1.626214208874487283e-02
-5.103844836536635537e-02
-7.758222867391695310e-02
-5.095338586171457851e-02
1.195437056700006904e-02
7.414594570963645159e-02
9.863594715543938518e-02
6.855964987625209894e-02
-3.619103692684436102e-03
-8.279591033209374173e-02
-1.301859235356831179e-01
-1.242799669873264207e-01
-7.243840443826166098e-02
-6.839265970290130114e-03
3.302210280534526726e-02
2.179489745545473700e-02
-3.793802805802896222e-02
-1.170187610303983494e-01
-1.754843989418619077e-01
-1.842002765997667879e-01
-1.406298160661701435e-01
-7.019258431023564504e-02
-1.247418099087485577e-02
2.371532508825408003e-04
-3.954715440670869553e-02
-1.104618172289938000e-01
-1.738788848017422395e-01
-1.948607925079182401e-01
-1.611170180242353367e-01
-8.968819900001298584e-02
-1.773399397581686132e-02
1.758238750791685234e-02
-7.901741982420384947e-04
-6.057815277093629713e-02
-1.268670445932711666e-01
-1.610576382508775439e-01
-1.418187580091392619e-01
-7.667827168983355757e-02
2.031031066147319375e-03
5.467335459975915246e-02
5.577268794189164935e-02
7.802389030421547078e-03
-6.017322094190556692e-02
-1.082687434554436834e-01
-1.074105468053676710e-01
-5.510592302977252582e-02
2.319953943823650777e-02
8.791250398731301208e-02
1.067556845356874007e-01
7.227085233215066462e-02
5.873606692709230220e-03
-5.373810387623564888e-02
-7.153859415544430722e-02
-3.513386970965550610e-02
3.855035343292850109e-02
1.124759208616962214e-01
1.496020596739120190e-01
1.329950143654111128e-01
7.503477791127993735e-02
1.072632508616915697e-02
-2.126066703289319904e-02
4.527234555266462790e-04
6.836236539978952920e-02
1.501352463312482233e-01
2.061124522644109669e-01
2.107736344039005949e-01
1.665285523602982320e-01
1.023606684967754699e-01
5.805911300023822164e-02
6.258749673791214052e-02
1.183164753281897019e-01
1.996686904869853507e-01
2.669124362432111486e-01
2.876288116450638754e-01
2.542178035594424568e-01
1.879560344071065092e-01
1.274087062841682549e-01
1.074790204827616030e-01
1.404530799927433682e-01
2.093161898203179383e-01
2.769641780670790143e-01
3.063168368187345059e-01
2.804305720337230690e-01
2.117073616219296572e-01
1.352072357630078603e-01
8.968811140712912300e-02
9.664922179485609111e-02
1.487364355776001901e-01
2.137930905513551749e-01
2.523590304548630203e-01
2.391307736738851886e-01
1.767486804549971424e-01
9.443632024982789863e-02
3.222834578363252545e-02
1.933517990939810638e-02
5.837122167633804204e-02
1.239950366734884346e-01
1.766979632426528002e-01
1.842662561821169498e-01
1.392825395431324387e-01
6.317943136259822345e-02
-5.352128218571519658e-03
-3.131651043715719118e-02
-2.370722409232917105e-03
6.449081318572857935e-02
1.321478581808971930e-01
1.634694438079536405e-01
1.414292775823564607e-01
7.831818337915956441e-02
9.060521748353547733e-03
-2.774170558798789987e-02
-1.076103021856547604e-02
5.246510407404256227e-02
1.295892010439850806e-01
1.809564557767233683e-01
1.810682813903258803e-01
1.323723942455123925e-01
6.390476028666944308e-02
1.551985610665281012e-02
1.625756979779161004e-02
6.857341901647243110e-02
1.469805083231670306e-01
2.118395513920615092e-01
2.308220887105999486e-01
1.964128643727036383e-01
1.299645008073902763e-01
7.010720389371141725e-02
5.179686747476121289e-02
8.735959785269278854e-02
1.598084881003644375e-01
2.320561141338385869e-01
2.670294385938141724e-01
2.477836137273521921e-01
1.867113794596026721e-01
1.188551627046640635e-01
8.294576685937302130e-02
1.004441373157083373e-01
1.639449465738828104e-01
2.412258549686173703e-01
2.927453524597611323e-01
2.931023073289464875e-01
2.448230783858149073e-01
1.770013973043262356e-01
1.295273646837203363e-01
1.314538748946703361e-01
1.852270831397915263e-01
2.653292987893743349e-01
3.320706015861214500e-01
3.530540893408117831e-01
3.206803827205758628e-01
2.562044349733444970e-01
1.981473780378967264e-01
1.813467770537958712e-01
2.180033168513399455e-01
2.909999382590083283e-01
3.631169931709243293e-01
3.971502474241421221e-01
3.760284096752233296e-01
3.120268134675175387e-01
2.400841155374374147e-01
1.988457493030889589e-01
2.097102563724360658e-01
2.652366346511811912e-01
3.331961670646540474e-01
3.740716803431519688e-01
3.625174667142218032e-01
3.011459341037227011e-01
2.191662734675472457e-01
1.566116038472796512e-01
1.427029542120514527e-01
1.800767155135805375e-01
2.434239100171980974e-01
2.932776245018681172e-01
2.974737629504071723e-01
2.486508913332786397e-01
1.683021113276499114e-01
9.518172942285381410e-02
6.435023842494694279e-02
8.821576894183973117e-02
1.498481296856027378e-01
2.121892075351841656e-01
2.381668964080056461e-01
2.108094721322808784e-01
1.424571955086788022e-01
6.807804861153290976e-02
2.631135827278303918e-02
3.851538758457574707e-02
9.717700700239202682e-02
1.699668000615421337e-01
2.172423151576221012e-01
2.135124312336245112e-01
1.612285759757985937e-01
8.942774914012355247e-02
3.796352260341601115e-02
3.587333119911742529e-02
8.560881776798395792e-02
1.616777064837258138e-01
2.244336290476251494e-01
2.415391913739977081e-01
2.054680653685940772e-01
1.375591186426337320e-01
7.642527661305707765e-02
5.700064300183538268e-02
9.158410831620333870e-02
1.631556601457478384e-01
2.345890782195382829e-01
2.687679872735074804e-01
2.487019659167120922e-01
1.867391266883038636e-01
1.178816283536913145e-01
8.082750238310371094e-02
9.701519844918063407e-02
1.590294555250442721e-01
2.346519785955695492e-01
2.843594294329846450e-01
2.827817732785016247e-01
2.324872200333518990e-01
1.626194065804279776e-01
1.131235758295343757e-01
1.131103485490467797e-01
1.650837964109753142e-01
2.435820233116845202e-01
3.089665535615600533e-01
3.288857675655126322e-01
2.957781385961418819e-01
2.309279915030715835e-01
1.728761638078684104e-01
1.564689131988671877e-01
1.939033240060484831e-01
2.680454564931847861e-01
3.416451059105962695e-01
3.774541483568249478e-01
3.583450686406449148e-01
2.965262813328710667e-01
2.268611040577709903e-01
1.879140019665939687e-01
2.010000912306902365e-01
2.585958981344927965e-01
3.283946207821727414e-01
3.708083928682311958e-01
3.604305123547749123e-01
2.998235606575354040e-01
2.181587189627779699e-01
1.554428192682432708e-01
1.408816922096415569e-01
1.771066561014900953e-01
2.388127182529426462e-01
2.865449131531855875e-01
2.881579271469270620e-01
2.363149322034491795e-01
1.525386716211067084e-01
7.561745911810273391e-02
4.064939732237940473e-02
6.008299224248585257e-02
1.170304345551551189e-01
1.744774686534544539e-01
1.953969705045682514e-01
1.628629955069789137e-01
8.926206653837678862e-02
9.608570242402178496e-03
-3.741220950158219427e-02
-3.039733509008116230e-02
2.318254889364399288e-02
9.103751738189916343e-02
1.335608575892749950e-01
1.252926806854182673e-01
6.871041897738100479e-02
-7.128543777664031467e-03
-6.235575333564893907e-02
-6.792387714266534537e-02
-2.137564929851787365e-02
5.179876775561932656e-02
1.119523424182695681e-01
1.267447405998330945e-01
8.864471748740088142e-02
1.898427924580942117e-02
-4.363268589565275080e-02
-6.428375815657305647e-02
-3.068513773864545158e-02
4.012350345846289745e-02
1.109903318818771800e-01
1.447660951792995587e-01
1.244191550531647816e-01
6.224749030470630440e-02
-6.805366882354835223e-03
-4.410666647590830158e-02
-2.828674110987889484e-02
3.317099700113371186e-02
1.079856017613203545e-01
1.565818139566625411e-01
1.535534659249647715e-01
1.014526057348668908e-01
2.942940049528063040e-02
-2.254076061048308766e-02
-2.529445650522682554e-02
2.374518481586929131e-02
9.920524159443670775e-02
1.615478504874484633e-01
1.785287442360285748e-01
1.426956094279414888e-01
7.543941219547678489e-02
1.540133229983355057e-02
-2.481297385255626375e-03
3.406810059075837671e-02
1.079816955369204273e-01
1.820604006626485305e-01
2.190906289293583220e-01
2.019612829020023259e-01
1.428777847907718168e-01
7.668015873221911693e-02
4.188880825327899460e-02
5.975396275409346203e-02
1.226670755914948396e-01
1.982177907760112601e-01
2.466992347329807489e-01
2.425745239703828715e-01
1.882700862557508681e-01
1.128205409237989232e-01
5.610101990843859021e-02
4.719503456035584188e-02
8.862454967905700198e-02
1.549908348202490016e-01
2.067625604723349886e-01
2.117363997239044282e-01
1.625360890243269796e-01
8.066305188015558680e-02
4.901277937873330104e-03
-2.963992353395417112e-02
-1.048686718184360656e-02
4.551018771286085424e-02
1.013851492745092703e-01
1.201676658836058759e-01
8.499499502680610274e-02
8.321129337588197006e-03
-7.476974012364911992e-02
-1.255217364069337593e-01
-1.224617681908312661e-01
-7.299181169991258988e-02
-9.335583008780345970e-03
2.896304971817446894e-02
1.650284389381560801e-02
-4.418500531576970841e-02
-1.239947546842051496e-01
-1.830153788938031489e-01
-1.921629417181966448e-01
-1.489494749912451121e-01
-7.884018730011402298e-02
-2.146282480920758129e-02
-9.144014593051932871e-03
-4.940669687632907869e-02
-1.209156433375612738e-01
-1.850683900267587334e-01
-2.069480558836070960e-01
-1.742798222745291503e-01
-1.041150227128897626e-01
-3.361924381817628371e-02
4.254553395009741390e-05
-2.017931093785632624e-02
-8.200770288012866616e-02
-1.505234190242669690e-01
-1.871222187238901213e-01
-1.704681684723738377e-01
-1.080849778202756239e-01
-3.230172367912090281e-02
1.724974943963603069e-02
1.509871109159321989e-02
-3.627348692377372480e-02
-1.077901852557243134e-01
-1.595476389703510411e-01
-1.624465417329888917e-01
-1.139605917760366793e-01
-3.949437159156549138e-02
2.140536824586765363e-02
3.651037574673528241e-02
-1.590157732197283735e-03
-7.143924879069837863e-02
-1.343077339019839445e-01
-1.551522799293624244e-01
-1.215772516626684591e-01
-5.052389053694795323e-02
2.093728640918852968e-02
5.571809938525436323e-02
3.682521870018480581e-02
-2.342956119540338944e-02
-9.011434042788152299e-02
-1.246338822360143206e-01
-1.056821524874642509e-01
-4.083248559450741721e-02
3.751800518410663282e-02
8.965247350520456904e-02
9.000000061049424904e-02
4.092877950474587551e-02
-2.860807973479809890e-02
-7.883797692495239651e-02
-8.079748995667074274e-02
-3.209800876138431402e-02
4.171987199879553798e-02
1.009794271098399809e-01
1.133332944759140176e-01
7.126698888241472796e-02
-3.846674304678054934e-03
-7.333950705311748086e-02
-1.022027201793020562e-01
-7.804618388189717149e-02
-1.778582545853595043e-02
4.156475073862546388e-02
6.300565515657056970e-02
2.966202689570002216e-02
-4.600783424573609559e-02
-1.289004284873410400e-01
-1.802272595998274385e-01
-1.784710934183085240e-01
-1.309800397556460383e-01
-6.991594770154613281e-02
-3.475435885734290409e-02
-5.082301166433872419e-02
-1.155132032222672411e-01
-1.996390169773545331e-01
-2.632081226854069977e-01
-2.770559175892973736e-01
-2.386163903819632226e-01
-1.732812178937148118e-01
-1.206105649099344229e-01
-1.128704504984036627e-01
-1.575308502423791446e-01
-2.332114625383034934e-01
-3.012723695069606800e-01
-3.267664075045696448e-01
-2.973952596535076598e-01
-2.301932255551828177e-01
-1.623149382425059239e-01
-1.309200493223836581e-01
-1.530580451180555412e-01
-2.164562906210334703e-01
-2.862042122034270664e-01
-3.237098291469129863e-01
-3.076525331532002916e-01
-2.455739132530135316e-01
-1.698232621015151600e-01
-1.200551062096499588e-01
-1.217657892682116882e-01
-1.725032579627516494e-01
-2.432249176575098093e-01
-2.940670683547433883e-01
-2.959774258682536519e-01
-2.464841777822369129e-01
-1.710533611345196325e-01
-1.092982262307293090e-01
-9.351526696658843396e-02
-1.311810910577112521e-01
-2.008973323328436533e-01
-2.639812786406274814e-01
-2.854191453568292736e-01
-2.528241249106164545e-01
-1.831231674932131959e-01
-1.133487010060687111e-01
-8.052803219887161301e-02
-1.015734158078213656e-01
-1.640755725030440815e-01
-2.329934355961195414e-01
-2.696158375655071660e-01
-2.525187305615992361e-01
-1.891596493117114752e-01
-1.118260384110001671e-01
-6.013477854906931763e-02
-5.956980182952227587e-02
-1.076919615804022012e-01
-1.754961200333261528e-01
-2.231792992784701890e-01
-2.217715084330072195e-01
-1.689024885955943689e-01
-9.015596452507126934e-02
-2.527524844919548652e-02
-6.695338383089791123e-03
-4.203605935366887258e-02
-1.100435946882762361e-01
-1.721779439166651327e-01
-1.935628262735091809e-01
-1.619398952195585939e-01
-9.435147914577600436e-02
-2.792840231625680347e-02
2.242119981601259360e-04
-2.685974861303935812e-02
-9.679785864260606609e-02
-1.745462193685712871e-01
-2.213592633739838167e-01
-2.157461370476402296e-01
-1.650654214837529166e-01
-1.014746457680483216e-01
-6.443179719912606185e-02
-7.923577460338467049e-02
-1.432398541400976000e-01
-2.272128959757302447e-01
-2.911118742335931930e-01
-3.057174051576448393e-01
-2.684057150615667409e-01
-2.045086870024191705e-01
-1.535256455846151502e-01
-1.476616932727777831e-01
-1.943267996115102814e-01
-2.720825645086059619e-01
-3.422339091322630367e-01
-3.697822984080102460e-01
-3.423824755352046223e-01
-2.770267406856762871e-01
-2.108329809418932888e-01
-1.809294524249516201e-01
-2.043395454228360553e-01
-2.687697233276221676e-01
-3.392935063332191969e-01
-3.773077559504020018e-01
-3.614851495018829852e-01
-2.993646810172694295e-01
-2.232968345136051580e-01
-1.729408372120742055e-01
-1.738009888472675790e-01
-2.234361844674789821e-01
-2.928174261036544657e-01
-3.420970237141905956e-01
-3.422411963431607473e-01
-2.907994460646787238e-01
-2.132622756512525253e-01
-1.492708393724511973e-01
-1.311533523030838366e-01
-1.664225475373780905e-01
-2.337212214674898869e-01
-2.944130386751766526e-01
-3.135349274241435724e-01
-2.787528911709780122e-01
-2.070453952590819435e-01
-1.354909968513936802e-01
-1.011535870537973308e-01
-1.209686940378790487e-01
-1.825342919732718117e-01
-2.507991997205533674e-01
-2.870249463408066637e-01
-2.697442905861610063e-01
-2.063577707894016511e-01
-1.290844571398561680e-01
-7.746426789467919516e-02
-7.689853568368923420e-02
-1.248629603042581138e-01
-1.922676483857468366e-01
-2.392279583289341482e-01
-2.366978954597699913e-01
-1.822394579686820171e-01
-1.013796345739102212e-01
-3.381880431572292789e-02
-1.196544085935945245e-02
-4.343143870464167416e-02
-1.069752064595300006e-01
-1.640898347273345714e-01
-1.799528735938190627e-01
-1.423795931338924237e-01
-6.850372410043822913e-02
4.437885147286477205e-03
3.922347352523675168e-02
1.876399110633512890e-02
-4.468312880736278331e-02
-1.161968043726804567e-01
-1.571479057105864552e-01
-1.461516273920768216e-01
-9.065869132323851887e-02
-2.290212501649643850e-02
1.760297220218536018e-02
5.519712893378117546e-03
-5.652418228660145011e-02
-1.392985002454857901e-01
-2.027446643903142998e-01
-2.176132937767464581e-01
-1.812382890440099592e-01
-1.188989190740700613e-01
-7.003357378147424817e-02
-6.678002941200723852e-02
-1.164762697482944753e-01
-1.976088293791311568e-01
-2.714061935823099958e-01
-3.027939088079586449e-01
-2.793531451809511679e-01
-2.180064541857559546e-01
-1.558068775907878734e-01
-1.298233645628478206e-01
-1.570257407814110162e-01
-2.250724963625697350e-01
-2.989944975431090834e-01
-3.401510501821121135e-01
-3.271823332426926356e-01
-2.676000016735159970e-01
-1.937323996763618827e-01
-1.452216109094212615e-01
-1.475593517836016888e-01
-1.982959212498011103e-01
-2.683971854549703773e-01
-3.180134546738543344e-01
-3.181118974548721168e-01
-2.662457865513789823e-01
-1.879121695776271861e-01
-1.227616097948715651e-01
-1.031348564071164209e-01
-1.365606587629844548e-01
-2.017018586219017084e-01
-2.599471280336760337e-01
-2.763648358187395515e-01
-2.386606870670993086e-01
-1.638628318203451673e-01
-8.911056399279802809e-02
-5.153948148276382701e-02
-6.816628928415023603e-02
-1.266764294070779340e-01
-1.921076475594202249e-01
-2.258058586450499561e-01
-2.063772152432253593e-01
-1.412784054870123429e-01
-6.276232532825459787e-02
-1.037686173793597733e-02
-9.503897000225455804e-03
-5.757255749674925621e-02
-1.254214083602297469e-01
-1.730729384038891538e-01
-1.713715132644335060e-01
-1.177578133312726094e-01
-3.763114139981783846e-02
2.943714054443345024e-02
5.116443603289725500e-02
2.005773991385435828e-02
-4.253282291120753789e-02
-9.800515436536411107e-02
-1.114576506739171496e-01
-7.064492186171718313e-02
7.339204566997476094e-03
8.527498370963386420e-02
1.259333931554391661e-01
1.121929968762536839e-01
5.625404030731874505e-02
-7.043090332091724026e-03
-3.917132853568197626e-02
-1.886647698732785150e-02
4.628498556169106937e-02
1.239030300297075948e-01
1.743187588053451420e-01
1.720396484554564953e-01
1.195409899419733746e-01
4.590849496960469622e-02
-8.931700941861589471e-03
-1.584717159976835321e-02
2.772925093382758166e-02
9.643897068976112208e-02
1.507846100091237151e-01
1.585898312508829677e-01
1.124979215933308019e-01
3.402217677100866783e-02
-3.804913780171167992e-02
-6.860963350791846049e-02
-4.519516902423795224e-02
1.532842799998442203e-02
7.597417502418193913e-02
9.974638250791735550e-02
6.975363580175955591e-02
-1.580932770933810017e-03
-7.920511459326987080e-02
-1.243952672508778362e-01
-1.157100890091650597e-01
-6.058229768983536268e-02
8.735256066105180628e-03
5.267168859975830675e-02
4.580135794189338361e-02
-9.365903969576844235e-03
-8.374246094190324063e-02
-1.374321714554426199e-01
-1.413630118053691986e-01
-9.305635902977479890e-02
-1.798453056176530993e-02
4.421957198731228666e-02
6.122578453569565288e-02
2.550892833215268052e-02
-4.159688230724387092e-02
-1.014891318762347755e-01
-1.192495911554445065e-01
-8.260065770965671628e-02
-8.589378567074089019e-03
6.562444786169431554e-02
1.028830846739118149e-01
8.614545936541201376e-02
2.769841791128241013e-02
-3.752820791382883298e-02
-7.091884303288356617e-02
-5.112548354447476323e-02
1.434115439974362888e-02
9.316609633124661727e-02
1.457327782644094460e-01
1.465869604039016227e-01
9.822780536029990239e-02
2.975130649677844991e-02
-1.891788699976075516e-02
-1.865853126208806556e-02
3.307714332818743885e-02
1.109034044869822017e-01
1.752877202431853687e-01
1.940099276450636401e-01
1.596599555594812314e-01
9.368716140710901807e-02
3.480417228417047315e-02
1.802909748276139423e-02
5.572465899274207934e-02
1.309106008203153315e-01
2.064731930670764826e-01
2.452789118187342909e-01
2.302890020337240162e-01
1.737715726219327683e-01
1.106180847630466868e-01
7.938776140713015017e-02
1.013559797948303393e-01
1.689249405775970769e-01
2.496802015513528983e-01
3.038957424548621722e-01
3.060004776738862176e-01
2.583719344549994523e-01
1.899820872498302338e-01
1.406314497836335664e-01
1.393195919093973001e-01
1.884785846763357697e-01
2.626174906734419223e-01
3.221139332426513624e-01
3.346777331821259027e-01
2.928524145431344872e-01
2.180675863626007072e-01
1.490450487814300451e-01
1.208423695628426248e-01
1.458924215907651811e-01
2.073151761857259523e-01
2.681255991808952910e-01
2.913447798079534801e-01
2.601112065823300568e-01
1.868890933792071718e-01
1.067808317483555647e-01
5.856730941202105412e-02
6.375221578145846835e-02
1.149685790740400532e-01
1.800309610439828067e-01
2.194360217767225563e-01
2.078244513903278468e-01
1.477701432455147679e-01
6.842173728667182153e-02
9.732767106653855693e-03
8.285897977907824563e-04
4.423668601647017667e-02
1.145287063231645031e-01
1.721106473920357427e-01
1.846861707106003947e-01
1.447588603727056888e-01
7.368646580739278418e-02
1.008989989371301965e-02
-1.109958352523897351e-02
2.240315885269091034e-02
9.355319310036186442e-02
1.651876641338367036e-01
2.001411125938140079e-01
1.813607877273537561e-01
1.211187844596051527e-01
5.432791870470286832e-02
1.958503585937346192e-02
3.821782931570692765e-02
1.026934225738803524e-01
1.806722809686151232e-01
2.325102534597602855e-01
2.327217733289475288e-01
1.837700713858172463e-01
1.147095913043285759e-01
6.541693768372136564e-02
6.495863789466950478e-02
1.158223411397892866e-01
1.925597427893278035e-01
2.555775415861201161e-01
2.726015863408122186e-01
2.361798377205778787e-01
1.677365959733470302e-01
1.059802680378983397e-01
8.594801405379567938e-02
1.200456168513381050e-01
1.913587992590057296e-01
2.628598691709224111e-01
2.975171194241419403e-01
2.784043356752249343e-01
2.179076464675651637e-01
1.510369305374394400e-01
1.164657273030894336e-01
1.355759193724346834e-01
2.008654276511786796e-01
2.800022010646517900e-01
3.333268283431511936e-01
3.353165577142228626e-01
2.883765351037250180e-01
2.214835904675495903e-01
1.744190178472807273e-01
1.761387442120506686e-01
2.290074525135384342e-01
3.074447390171956562e-01
3.717193515018666905e-01
3.894164919504076727e-01
3.529439483332806882e-01
2.835898673276524007e-01
2.199345374228554584e-01
1.968992714249467868e-01
2.267903619418378536e-01
2.926141116856001978e-01
3.572868965351823078e-01
3.837476474080054323e-01
3.550698821323114984e-01
2.836702765086813183e-01
2.046209276115349696e-01
1.566891692727835073e-01
1.613811175845743795e-01
2.113472000023895458e-01
2.744331970615399019e-01
3.111794581576213248e-01
2.962812252336256003e-01
2.323757869758009686e-01
1.486817321401259495e-01
8.522682860341711242e-02
7.121295819910257452e-02
1.092446967679817360e-01
1.739699034837233482e-01
2.258686210476237854e-01
2.327153403739981585e-01
1.870804123685961273e-01
1.103835866426362555e-01
4.130236761305869364e-02
1.481861000183520849e-02
4.326157431620149263e-02
1.096235551457453022e-01
1.767717922195364277e-01
2.075636712735045297e-01
1.849620699167137117e-01
1.212477066883063809e-01
5.133555335369336531e-02
1.381891138310417655e-02
3.001714444917927271e-02
9.238522052504180571e-02
1.685685065955673245e-01
2.189053994329838715e-01
2.178907462785027449e-01
1.679659730333542822e-01
9.816114958043034577e-02
4.832539782955487528e-02
4.749413154904601198e-02
9.811986441097308997e-02
1.747149343116820852e-01
2.376423125615587106e-01
2.545796195655131156e-01
2.180222265961439809e-01
1.493385745030741119e-01
8.718043480787009136e-02
6.653137619886709264e-02
9.975115100604667329e-02
1.698915904931822263e-01
2.399073729105944131e-01
2.727684273568247719e-01
2.515706486406465436e-01
1.887420123328736044e-01
1.193517950577730330e-01
8.214733996659447091e-02
9.859486923071253406e-02
1.612828201344903012e-01
2.379713567821705733e-01
2.890910288682304596e-01
2.892036153547559163e-01
2.407908746575377901e-01
1.728962079627803794e-01
1.253555662682444005e-01
1.271659472096408616e-01
1.807179911014878959e-01
2.604408582529402216e-01
3.265954551531842220e-01
3.467408771469275841e-01
3.132397282034512509e-01
2.473154056211092355e-01
1.874641861181044200e-01
1.685056583223792925e-01
2.026296472424840012e-01
2.727155525551526183e-01
3.415476386534526676e-01
3.719331085045652352e-01
3.468195965069805764e-01
2.785086185383793267e-01
2.019717442424042719e-01
1.558930454984183145e-01
1.617139779099175390e-01
2.120391888936415392e-01
2.746870883818969822e-01
3.101881915892742425e-01
2.932443246854193886e-01
2.265146179773833979e-01
1.392535292223383847e-01
7.153721466437157339e-02
5.262653085733390301e-02
8.519335070147993072e-02
1.439587757556169134e-01
1.894796524182682240e-01
1.896086235998336311e-01
1.369936144874029926e-01
5.312984924581200946e-02
-2.323285589565107778e-02
-5.704416215657316658e-02
-3.591064273864727485e-02
2.321942045846037833e-02
8.326769988187536498e-02
1.071410111792977654e-01
7.784683205316646204e-02
7.705826304708876875e-03
-6.833171688235273322e-02
-1.116418944759077769e-01
-1.008795251099033896e-01
-4.356857699886872159e-02
2.795272276135680328e-02
7.403476695664776286e-02
6.918039992496591295e-02
1.583556173482580237e-02
-5.696814150467465615e-02
-1.093826216104819560e-01
-1.123758795052416243e-01
-6.350136918413290532e-02
1.174424659447833447e-02
7.371126348744841406e-02
9.006017123602909347e-02
5.326377042790679528e-02
-1.533889380452063168e-02
-7.713410370016478279e-02
-9.718696438525728509e-02
-6.319847140924343687e-02
7.810005536916599794e-03
7.870856066261358586e-02
1.123740139293581963e-01
9.180542090200266570e-02
2.933653579077438039e-02
-4.004778626777878714e-02
-7.766769974671060284e-02
-6.210135524590783968e-02
-7.769294084635502973e-04
7.407957277597060353e-02
1.229434847329800157e-01
1.204506659703646343e-01
6.918272025579556839e-02
-1.696253076198667165e-03
-5.221470109153952821e-02
-5.323168343964489874e-02
-2.210854320906709136e-03
7.541831382024657970e-02
1.400484854723336725e-01
1.593568047238950180e-01
1.258073480243290798e-01
6.070646288015815739e-02
2.613273937905377653e-03
-1.361152553395428288e-02
2.423943281815459094e-02
9.903771271281429367e-02
1.735328632745074540e-01
2.104696998836057542e-01
1.927061690268077609e-01
1.324287043375907691e-01
6.447185587639120419e-02
2.736543759306675483e-02
4.238501280919036718e-02
1.019639063000409435e-01
1.737500749912174736e-01
2.181102567181863461e-01
2.095941448938167251e-01
1.507243646842327256e-01
7.063733531584098779e-02
9.311337106198011582e-03
-4.069597718183340374e-03
3.311100800875415445e-02
9.554007469988357037e-02
1.437606821908154475e-01
1.456308084069485864e-01
9.382117112367302503e-02
9.865298662487835199e-03
-6.743545102675704839e-02
-1.029684578836086301e-01
-8.426977627456412601e-02
-2.821124971289225986e-02
2.820902418182048843e-02
4.797995353394998719e-02
1.419134006214532728e-02
-6.075485688007956075e-02
-1.418290810242648636e-01
-1.903310617238981317e-01
-1.848430174723751651e-01
-1.328209718202780498e-01
-6.654069967908461669e-02
-2.559558756036470206e-02
-3.543338090842639010e-02
-9.356585992372766503e-02
-1.709262382557218962e-01
-2.276380419703706304e-01
-2.346471837329896226e-01
-1.894907157760388483e-01
-1.176539325915252204e-01
-5.877950075413364284e-02
-4.520342425327407432e-02
-8.445210373215705779e-02
-1.551876917906958031e-01
-2.187992749019822547e-01
-2.403564239293625726e-01
-2.075667546626702720e-01
-1.374612805369946067e-01
-6.718375859081324175e-02
-3.387688561474705429e-02
-5.456831829978453507e-02
-1.169596131954008383e-01
-1.861110824279174902e-01
-2.233988232360137882e-01
-2.074676784874655566e-01
-1.458217705945538956e-01
-7.076912381589556267e-02
-2.191781849478212363e-02
-2.471095938948401904e-02
-7.663490949525171569e-02
-1.485760197348379441e-01
-2.005900989249512767e-01
-2.035366769566714917e-01
-1.548513977613852621e-01
-7.990763000120687520e-02
-1.823051889013818649e-02
-2.038145524076981352e-03
-3.874398211758317556e-02
-1.069075803046766748e-01
-1.678305010531158381e-01
-1.865135591793021519e-01
-1.506167968819321357e-01
-7.714604945853846540e-02
-3.242421261376374209e-03
3.393220615656873662e-02
1.731035389570168004e-02
-4.086856524577865690e-02
-1.057415604873389314e-01
-1.387775225998269246e-01
-1.187285264183331190e-01
-5.321853975564848349e-02
2.531400429849045564e-02
7.712224814264229122e-02
7.661833833566239482e-02
2.616786777769183892e-02
-4.526369297735215874e-02
-9.787650568540587348e-02
-1.026656995892980540e-01
-5.718812738196538126e-02
1.308156210632682726e-02
6.854155909004082392e-02
7.692528850159684184e-02
3.080159275762296006e-02
-4.837398053830097022e-02
-1.218537595069590501e-01
-1.545546585045716736e-01
-1.340186856535095505e-01
-7.710112955518619304e-02
-2.076277224254090281e-02
-1.959091322383782474e-03
-3.752948811808379248e-02
-1.149894296210309252e-01
-1.992183312034249421e-01
-2.514194531469031713e-01
-2.500757431532016350e-01
-2.025434202529719507e-01
-1.409998231015564263e-01
-1.049429002096507330e-01
-1.197293852682299597e-01
-1.827857419627492153e-01
-2.649666266575074203e-01
-3.263245283547415165e-01
-3.377424278682543690e-01
-2.967030837821999500e-01
-2.286466571345661392e-01
-1.731802162307306547e-01
-1.626138379665886535e-01
-2.044575130577091782e-01
-2.773659823328410989e-01
-3.427290476405961961e-01
-3.656240183568293944e-01
-3.337720109106182553e-01
-2.642219034932605237e-01
-1.941382940060705220e-01
-1.606865591988689279e-01
-1.809180958078197010e-01
-2.425588245030415313e-01
-3.106939185960801431e-01
-3.467250915655066823e-01
-3.293242185615767315e-01
-2.660249053117139106e-01
-1.891685014110023877e-01
-1.384019165490565362e-01
-1.392142398295211914e-01
-1.891462325803998090e-01
-2.591475360333233002e-01
-3.093454462784691050e-01
-3.106770714329939453e-01
-2.606581825956360010e-01
-1.847402945250737338e-01
-1.225195174491968408e-01
-1.062721713830892811e-01
-1.434517273536667914e-01
-2.126345686882282759e-01
-2.751122219166634575e-01
-2.958466772735096062e-01
-2.624305452195935806e-01
-1.917757631457785716e-01
-1.209069043162257495e-01
-8.685181300184002806e-02
-1.065323456130376906e-01
-1.675579516425582116e-01
-2.349146663685692249e-01
-2.699255303739918621e-01
-2.512061890476414705e-01
-1.862575184837553799e-01
-1.074119937680108328e-01
-5.433128419912684748e-02
-5.254225060340306230e-02
-9.964549114009510489e-02
-1.666711219757278650e-01
-2.138453722336115526e-01
-2.122196961576456320e-01
-1.594359830615689755e-01
-8.107984900242162785e-02
-1.688606058461648851e-02
7.288077272226967107e-04
-3.582784261147142768e-02
-1.052674685086033846e-01
-1.690092051322614197e-01
-1.921313494080104378e-01
-1.623274945352064513e-01
-9.659129868572438604e-02
-3.200612294189518481e-02
-5.632290424948824259e-03
-3.439491442280541433e-02
-1.058753033276196437e-01
-1.849988223332537929e-01
-2.329954159504015465e-01
-2.283565055018843548e-01
-1.784298050173158956e-01
-1.153684165136074080e-01
-7.863163521206095741e-02
-9.352461184726673649e-02
-1.574110084674766041e-01
-2.410734671036943721e-01
-3.044855797141895470e-01
-3.184469103431615267e-01
-2.803543290647211306e-01
-2.155613276512549914e-01
-1.635890513724522488e-01
-1.566638943030748687e-01
-2.022158655373760827e-01
-2.788247924674869815e-01
-3.478117106751750787e-01
-3.741920294241437572e-01
-3.456322561710130081e-01
-2.791342222590845190e-01
-2.118231748513624280e-01
-1.808326590538008039e-01
-2.031892640378774595e-01
-2.666004759733143770e-01
-3.361387657205513468e-01
-3.731982393408062038e-01
-3.564476395861873037e-01
-2.934214437894041572e-01
-2.164655501398179693e-01
-1.652347978946799856e-01
-1.652293666836881503e-01
-2.140043033042974552e-01
-2.825271323857444505e-01
-3.309472103289330946e-01
-3.302284154597848742e-01
-2.779185199686842744e-01
-1.995068255739127216e-01
-1.346336893157493442e-01
-1.156267008593590273e-01
-1.499976307046396173e-01
-2.163871334595275087e-01
-2.761545037273329672e-01
-2.943291535938228343e-01
-2.585659821338943121e-01
-1.858291101003945733e-01
-1.131806878527485127e-01
-7.766813147476346602e-02
-9.621295689369147031e-02
-1.564039898073602830e-01
-2.231873233726784367e-01
-2.578289147105783385e-01
-2.388733913920782492e-01
-1.737405003231969891e-01
-9.467540201649957132e-02
-4.124986379781545032e-02
-3.890133710664017697e-02
-8.514415428659913299e-02
-1.509278102454834625e-01
-1.964060983902947977e-01
-1.925688717767472524e-01
-1.370098870440112915e-01
-5.528260407411661470e-02
1.289222321852433184e-02
3.509228558799420972e-02
3.698655251707587410e-03
-6.004706337912864983e-02
-1.176306925822803995e-01
-1.342151958079588758e-01
-9.759405818091991536e-02
-2.487228418580504641e-02
4.674854740921020879e-02
8.008795043715481732e-02
5.810339221859059378e-02
-6.897075362567275589e-03
-7.993947954310814952e-02
-1.223420171821116564e-01
-1.126702252426685230e-01
-5.833078367351852284e-02
8.479629323635821947e-03
4.827332509059310828e-02
3.573148821639937633e-02
-2.650927824979878999e-02
-1.092185604549269218e-01
-1.723454076738532847e-01
-1.866547404548729583e-01
-1.495001925514223007e-01
-8.618501657762966950e-02
-3.617463779487298248e-02
-3.163567940711597970e-02
-7.993572076298241513e-02
-1.595909386218553327e-01
-2.318590700336744803e-01
-2.616941708187356941e-01
-2.367047680671343635e-01
-1.738390328203477386e-01
-1.101732309927655612e-01
-8.279654148276405223e-02
-1.086956282841486654e-01
-1.755423324070767288e-01
-2.483775535594182071e-01
-2.885676456450580463e-01
-2.747572682432281033e-01
-2.144604244870148557e-01
-1.400061103282157493e-01
-9.103579873793682387e-02
-9.303970500022440415e-02
-1.435659254967059928e-01
-2.135773253602274435e-01
-2.632200464038867982e-01
-2.634554802644343274e-01
-2.118292623312748868e-01
-1.338289763998190274e-01
-6.909413945556795722e-02
-4.995320396710094257e-02
-8.392178508610820264e-02
-1.496492239112050537e-01
-2.085107803653915015e-01
-2.255617466739173738e-01
-1.884950208617190981e-01
-1.143259984329582646e-01
-4.018112629036801886e-02
-3.183122844556809938e-03
-2.033598112374473965e-02
-7.931269469267879235e-02
-1.451385923321251159e-01
-1.791467855356815575e-01
-1.599301059873292630e-01
-9.493181743831144437e-02
-1.639207697029468336e-02
3.615219580535833366e-02
3.732700245547546786e-02
-1.029337805802431338e-02
-7.754967303039300708e-02
-1.244727469418605570e-01
-1.219217795997691867e-01
-6.735844006621595492e-02
1.379171268975861245e-02
8.192712000912372172e-02
1.047323992508919221e-01
7.468040459333281922e-02
1.308696377096745141e-02
-4.147916280171010106e-02
-5.414785350791866819e-02
-1.270268602427301885e-02
6.573653599998181829e-02
1.439275950242131785e-01
1.846232695079157438e-01
1.706891548017611115e-01
1.143185372290235480e-01
5.035125240673214708e-02
1.732028274912260357e-02
3.650204199083212364e-02
1.003283793101620996e-01
1.764435250661441912e-01
2.252083135997434427e-01
2.211644039418944052e-01
1.668242250304268759e-01
9.131190305809906704e-02
3.459167354455840171e-02
2.583234819461589782e-02
6.763466597022291249e-02
1.346699774382321968e-01
1.874666019872850975e-01
1.938691565356960855e-01
1.465368973321178880e-01
6.699424769275860725e-02
-5.963812876233196003e-03
-3.722808515544895336e-02
-1.433495370965863491e-02
4.584649943297017249e-02
1.063238048616924336e-01
1.300938686739116223e-01
1.002559553653859653e-01
2.922171591128490051e-02
-4.797064291382682755e-02
-9.261414703288449457e-02
-8.328661154447616899e-02
-2.744180060021483153e-02
4.264513933120314682e-02
8.738051226440861352e-02
8.131594140390265013e-02
2.693901236030223773e-02
-4.668409450321922560e-02
-9.967754899974168303e-02
-1.029879632620888941e-01
-5.415304067181353487e-02
2.134146548693564849e-02
8.385260724318396863e-02
1.010440556450568628e-01
6.538875455948324478e-02
-1.776570592888491659e-03
-6.184236871580024719e-02
-7.987925951723881535e-02
-4.359488700722666255e-02
2.998147982031148726e-02
1.037102220670745867e-01
1.404554578187369174e-01
1.231988010337256023e-01
6.424976262193524135e-02
-1.440121236952501826e-03
-3.523557859286939598e-02
-1.577202720514549183e-02
4.945225357755050899e-02
1.281299845513506341e-01
1.806476584548625530e-01
1.815501106738872661e-01
1.333324374550018121e-01
6.508416824987367511e-02
1.672166178363462818e-02
1.735646290939646397e-02
6.952560467629252672e-02
1.478321706734393726e-01
2.127328252426743393e-01
2.319976801821263257e-01
1.982084165431364509e-01
1.328077253626472054e-01
7.450305978143159646e-02
5.830855756284636371e-02
9.658383559076329228e-02
1.723460311857233918e-01
2.484789991809275844e-01
2.878467378079532790e-01
2.734078505823316352e-01
2.174276413792086970e-01
1.547946017483576298e-01
1.240648214120129988e-01
1.465104037814317639e-01
2.145300250740375947e-01
2.957051270439814972e-01
3.503045807767217190e-01
3.527509653903289077e-01
3.054143592455584311e-01
2.372585002866741399e-01
1.880752191066558110e-01
1.868552107977899668e-01
2.360217090164281051e-01
3.100752953232068787e-01
3.693859273920343522e-01
3.816571287105930965e-01
3.394280913727436566e-01
2.641265918073952834e-01
1.944754098936856135e-01
1.655358734747608418e-01
1.897470368526890105e-01
2.502369371004055099e-01
3.100299321338347847e-01
3.321573555938174271e-01
2.997684707273843840e-01
2.253385294596076394e-01
1.439809507046688475e-01
9.448734285937390731e-02
9.837153531570554110e-02
1.482758235738337871e-01
2.120229979686128752e-01
2.501168434597594858e-01
2.372040433289673289e-01
1.758632523858195962e-01
9.524648930433093907e-02
3.530916068372243199e-02
2.517706789465465333e-02
6.737700613974660635e-02
1.364791757893253354e-01
1.928876375861435788e-01
2.043040133408211556e-01
1.632303007205799517e-01
9.102367597330493498e-02
2.630583203789993441e-02
4.010301053795489734e-03
3.642596485133621498e-02
1.065128482590031594e-01
1.771139681709536784e-01
2.110703184241384811e-01
1.913359336752265549e-01
1.301897994675225712e-01
6.255156153744149961e-02
2.702474730308990214e-02
4.494359137240860891e-02
1.087815486511762436e-01
1.862049530646498474e-01
2.375746013431362935e-01
2.374084337142239598e-01
1.881712011037276477e-01
1.189163014675519436e-01
6.951622384730118953e-02
6.903002421203577321e-02
1.199344845135362214e-01
1.967672020172371861e-01
2.599178115018407897e-01
2.770924619504081532e-01
2.408173783332459295e-01
1.724942353276549267e-01
1.108095574228570579e-01
9.078115142494651291e-02
1.247995599418359886e-01
1.959406176856431925e-01
2.671730105351473039e-01
3.014681404080052918e-01
2.819095641322841850e-01
2.208994085086838366e-01
1.534691566115370387e-01
1.183185552727925166e-01
1.368588005845730315e-01
2.016184810023870788e-01
2.802959150614978689e-01
3.332604471576205429e-01
3.350154892336266732e-01
2.879891099758033479e-01
2.211772941401705939e-01
1.743761316034376785e-01
1.765512541991017814e-01
2.300710927680191809e-01
3.093522174836768612e-01
3.746530680476224395e-01
3.935412513739899310e-01
3.584000353685982132e-01
2.904867806426388310e-01
2.283457336130605420e-01
2.068583130018351035e-01
2.382887173162328009e-01
3.056007201456975575e-01
3.716694102195345351e-01
3.993951452735071683e-01
3.718168689167153373e-01
3.013217326883089187e-01
2.229580903537325964e-01
1.754756803831046819e-01
1.803691634491775275e-01
2.302832405249953251e-01
2.930629455955651164e-01
3.292519544329967629e-01
3.135520082785038243e-01
2.486094390333989934e-01
1.636541095804754653e-01
9.872713382955594641e-02
8.304563054905932107e-02
1.192311074109315139e-01
1.819496153116796078e-01
2.317000895615817235e-01
2.362760485655135967e-01
1.882666665961460206e-01
1.091102135030772302e-01
3.750243380787170178e-02
8.443179198869221747e-03
3.427947100601166919e-02
9.802109349317972287e-02
1.625525119105919736e-01
1.907482303568246440e-01
1.655883296406481797e-01
9.937090033292193814e-02
2.702834805777513949e-02
-1.282867703340502541e-02
1.136318230687508035e-03
6.139495913448786424e-02
1.356084177822074743e-01
1.841297138682297108e-01
1.814669873547763990e-01
1.300735896575832551e-01
5.899022196282507208e-02
8.075507268225368129e-03
6.373252209626034670e-03
5.634284810148569578e-02
1.325010722529809948e-01
1.952117401531829055e-01
2.121485611469187404e-01
1.757971852034542204e-01
1.075094886211118428e-01
4.591274711807707964e-02
2.595717632237912187e-02
5.996013324248219978e-02
1.309230675551491530e-01
2.017446366534508262e-01
2.353363605045670215e-01
2.147370325070112052e-01
1.523227025383818989e-01
8.311974524240542395e-02
4.584496749841884822e-02
6.194875090991616706e-02
1.240194008936821579e-01
1.998324543818947863e-01
2.498480315892734893e-01
2.486696186854409352e-01
1.988304289774280864e-01
1.294325892222984997e-01
8.037543066437265182e-02
8.072130285733312982e-02
1.329256637014389619e-01
2.114798367556144920e-01
2.767025274182902117e-01
2.962048965998341776e-01
2.623947784874051115e-01
1.965329332457683431e-01
1.371439541043505961e-01
1.190653848434267414e-01
1.544934932613177270e-01
2.263018764584578679e-01
2.972564528818735230e-01
3.301337331792976726e-01
3.078391290531681257e-01
2.426219223047114404e-01
1.693934291176494022e-01
1.267717275240927421e-01
1.361289938900952790e-01
1.899997520011288688e-01
2.561336827613147626e-01
2.949957869566470214e-01
2.812270609249864495e-01
2.174316297348281857e-01
1.328156624953277520e-01
6.741453338951917951e-02
5.045661949475765962e-02
8.459027681586492320e-02
1.445223515944759063e-01
1.908046404874471080e-01
1.912935662360296107e-01
1.386490404279088762e-01
5.438547119548193393e-02
-2.272240470016310271e-02
-5.759528138525738666e-02
-3.780828840924525119e-02
1.972297653691410316e-02
7.795312666261176859e-02
9.982139492935808434e-02
6.836646890200434590e-02
-4.061457209223051298e-03
-8.248447426777666402e-02
-1.282529637467100803e-01
-1.199978792459091698e-01
-6.522116940851001299e-02
3.759104775968413747e-03
4.731164473296522316e-02
3.995576797036577005e-02
-1.584793074420200870e-02
-9.105488207619624741e-02
-1.458054700915383806e-01
-1.510573294396456434e-01
-1.043544853209089074e-01
-3.118503817975584388e-02
2.880897247233237674e-02
4.329473172389555757e-02
4.750716024331171072e-03
-6.547935611983926596e-02
-1.287780600620929417e-01
-1.502078485339543856e-01
-1.174684011818472040e-01
-4.758153428718820549e-02
2.232011427450564939e-02
5.510765388360565342e-02
3.377072802680945035e-02
-2.937036266240664745e-02
-9.934791512360670318e-02
-1.375019754069327083e-01
-1.224318191908109477e-01
-6.158616869996146742e-02
1.279088299117544375e-02
6.116063471818562747e-02
5.815011689383723509e-02
6.337911684235142395e-03
-6.510907368415659591e-02
-1.162111218938008672e-01
-1.178145687181840762e-01
-6.736676099124803974e-02
9.721708699881148608e-03
7.386402119081415807e-02
9.275846440694912598e-02
5.888968012367513244e-02
-6.417279337509589413e-03
-6.458746702675538520e-02
-8.074780888360874598e-02
-4.268221127456592323e-02
3.248597928710524746e-02
1.075079361818186696e-01
1.451269665339498527e-01
1.281966170621470225e-01
6.889593211992300903e-02
2.048737975737249806e-03
-3.382937072389760602e-02
-1.748038047237650272e-02
4.350852217967550450e-02
